SpectraSuite Data File
++++++++++++++++++++++++++++++++++++
Date: Tue Jul 11 15:51:32 CEST 2017
User: IPCE
Dark Spectrum Present: Yes
Reference Spectrum Present: Yes
Number of Sampled Component Spectra: 1
Spectrometers: HR+C0708
Integration Time (usec): 1000 (HR+C0708)
Spectra Averaged: 10 (HR+C0708)
Boxcar Smoothing: 0 (HR+C0708)
Correct for Electrical Dark: No (HR+C0708)
Strobe/Lamp Enabled: No (HR+C0708)
Correct for Detector Non-linearity: No (HR+C0708)
Correct for Stray Light: No (HR+C0708)
Number of Pixels in Processed Spectrum: 2048
>>>>>Begin Processed Spectral Data<<<<<
188.76	-0.099
189.23	0.213
189.70	-0.168
190.17	0.071
190.64	0.602
191.12	0.270
191.59	0.176
192.06	0.483
192.53	0.216
193.01	0.882
193.48	-0.189
193.95	0.223
194.42	0.136
194.90	0.246
195.37	0.103
195.84	-0.098
196.31	0.522
196.78	-0.066
197.26	0.338
197.73	0.663
198.20	0.175
198.67	0.151
199.14	-0.031
199.62	0.050
200.09	0.740
200.56	0.272
201.03	0.190
201.50	0.252
201.97	0.282
202.45	0.299
202.92	0.442
203.39	0.383
203.86	0.416
204.33	0.334
204.80	0.485
205.28	0.246
205.75	0.225
206.22	0.310
206.69	0.547
207.16	0.284
207.63	0.330
208.11	0.398
208.58	0.341
209.05	0.351
209.52	0.447
209.99	0.338
210.46	0.330
210.93	0.316
211.41	0.213
211.88	0.408
212.35	0.322
212.82	0.189
213.29	0.481
213.76	0.351
214.23	0.470
214.70	0.314
215.18	0.383
215.65	0.351
216.12	0.360
216.59	0.381
217.06	0.565
217.53	0.345
218.00	0.436
218.47	0.559
218.94	0.328
219.41	0.408
219.89	0.508
220.36	0.418
220.83	0.524
221.30	0.393
221.77	0.414
222.24	0.502
222.71	0.508
223.18	0.370
223.65	0.647
224.12	0.515
224.59	0.549
225.06	0.511
225.54	0.529
226.01	0.697
226.48	0.647
226.95	0.557
227.42	0.743
227.89	0.660
228.36	0.768
228.83	0.939
229.30	0.888
229.77	0.898
230.24	1.209
230.71	1.201
231.18	1.085
231.65	1.247
232.12	1.436
232.59	1.263
233.06	1.387
233.53	1.351
234.00	1.588
234.47	1.564
234.94	1.753
235.41	1.661
235.88	1.721
236.35	1.675
236.82	1.733
237.29	1.794
237.76	1.717
238.23	1.769
238.70	1.929
239.17	1.890
239.64	1.846
240.11	1.895
240.58	2.021
241.05	2.131
241.52	1.985
241.99	1.972
242.46	1.972
242.93	2.108
243.40	2.070
243.87	2.137
244.34	2.350
244.81	2.147
245.28	2.116
245.75	2.329
246.22	2.254
246.69	2.214
247.16	2.182
247.63	2.227
248.10	2.265
248.57	2.154
249.04	2.249
249.51	2.321
249.98	2.176
250.45	2.378
250.92	2.271
251.39	2.141
251.85	2.124
252.32	2.048
252.79	1.887
253.26	1.852
253.73	1.821
254.20	1.713
254.67	1.628
255.14	1.542
255.61	1.522
256.08	1.491
256.55	1.420
257.02	1.378
257.49	1.348
257.95	1.292
258.42	1.268
258.89	1.213
259.36	1.201
259.83	1.170
260.30	1.142
260.77	1.115
261.24	1.099
261.71	1.069
262.17	1.052
262.64	1.033
263.11	1.010
263.58	0.999
264.05	0.982
264.52	0.967
264.99	0.943
265.46	0.930
265.92	0.917
266.39	0.908
266.86	0.890
267.33	0.877
267.80	0.873
268.27	0.859
268.74	0.851
269.20	0.837
269.67	0.828
270.14	0.817
270.61	0.808
271.08	0.797
271.55	0.794
272.01	0.781
272.48	0.777
272.95	0.773
273.42	0.760
273.89	0.759
274.36	0.750
274.82	0.743
275.29	0.740
275.76	0.733
276.23	0.728
276.70	0.726
277.16	0.716
277.63	0.716
278.10	0.713
278.57	0.703
279.04	0.703
279.50	0.698
279.97	0.697
280.44	0.694
280.91	0.691
281.38	0.692
281.84	0.687
282.31	0.686
282.78	0.687
283.25	0.682
283.72	0.681
284.18	0.682
284.65	0.680
285.12	0.676
285.59	0.675
286.05	0.675
286.52	0.675
286.99	0.675
287.46	0.674
287.92	0.674
288.39	0.677
288.86	0.675
289.33	0.672
289.79	0.675
290.26	0.672
290.73	0.674
291.20	0.666
291.66	0.669
292.13	0.661
292.60	0.658
293.07	0.654
293.53	0.652
294.00	0.643
294.47	0.639
294.93	0.635
295.40	0.623
295.87	0.618
296.34	0.609
296.80	0.603
297.27	0.595
297.74	0.587
298.20	0.582
298.67	0.578
299.14	0.567
299.60	0.554
300.07	0.547
300.54	0.537
301.01	0.530
301.47	0.518
301.94	0.513
302.41	0.505
302.87	0.500
303.34	0.491
303.81	0.486
304.27	0.476
304.74	0.471
305.21	0.462
305.67	0.457
306.14	0.450
306.61	0.443
307.07	0.440
307.54	0.431
308.01	0.424
308.47	0.425
308.94	0.417
309.40	0.412
309.87	0.406
310.34	0.408
310.80	0.402
311.27	0.393
311.74	0.392
312.20	0.388
312.67	0.387
313.13	0.386
313.60	0.383
314.07	0.377
314.53	0.373
315.00	0.373
315.47	0.373
315.93	0.369
316.40	0.369
316.86	0.364
317.33	0.367
317.80	0.356
318.26	0.358
318.73	0.358
319.19	0.353
319.66	0.354
320.13	0.351
320.59	0.349
321.06	0.345
321.52	0.344
321.99	0.346
322.45	0.340
322.92	0.340
323.39	0.340
323.85	0.335
324.32	0.334
324.78	0.332
325.25	0.330
325.71	0.327
326.18	0.323
326.64	0.320
327.11	0.323
327.58	0.322
328.04	0.319
328.51	0.321
328.97	0.317
329.44	0.313
329.90	0.313
330.37	0.310
330.83	0.307
331.30	0.304
331.76	0.299
332.23	0.298
332.69	0.295
333.16	0.295
333.62	0.292
334.09	0.289
334.56	0.290
335.02	0.283
335.49	0.281
335.95	0.279
336.42	0.276
336.88	0.277
337.35	0.274
337.81	0.272
338.28	0.271
338.74	0.272
339.20	0.268
339.67	0.268
340.13	0.265
340.60	0.268
341.06	0.263
341.53	0.261
341.99	0.263
342.46	0.258
342.92	0.259
343.39	0.258
343.85	0.256
344.32	0.257
344.78	0.256
345.25	0.253
345.71	0.257
346.17	0.253
346.64	0.250
347.10	0.250
347.57	0.248
348.03	0.247
348.50	0.243
348.96	0.240
349.43	0.244
349.89	0.240
350.35	0.240
350.82	0.238
351.28	0.233
351.75	0.230
352.21	0.234
352.67	0.226
353.14	0.223
353.60	0.217
354.07	0.213
354.53	0.213
355.00	0.210
355.46	0.207
355.92	0.209
356.39	0.201
356.85	0.192
357.31	0.195
357.78	0.190
358.24	0.181
358.71	0.179
359.17	0.174
359.63	0.167
360.10	0.164
360.56	0.158
361.03	0.151
361.49	0.147
361.95	0.140
362.42	0.131
362.88	0.130
363.34	0.119
363.81	0.116
364.27	0.110
364.73	0.105
365.20	0.099
365.66	0.095
366.12	0.088
366.59	0.090
367.05	0.087
367.51	0.083
367.98	0.076
368.44	0.078
368.90	0.074
369.37	0.075
369.83	0.071
370.29	0.070
370.76	0.073
371.22	0.071
371.68	0.068
372.15	0.067
372.61	0.071
373.07	0.067
373.54	0.067
374.00	0.066
374.46	0.066
374.92	0.063
375.39	0.065
375.85	0.065
376.31	0.063
376.78	0.065
377.24	0.061
377.70	0.063
378.16	0.063
378.63	0.059
379.09	0.061
379.55	0.064
380.01	0.062
380.48	0.064
380.94	0.062
381.40	0.059
381.87	0.057
382.33	0.061
382.79	0.060
383.25	0.059
383.72	0.060
384.18	0.059
384.64	0.058
385.10	0.058
385.56	0.059
386.03	0.058
386.49	0.059
386.95	0.057
387.41	0.055
387.88	0.056
388.34	0.056
388.80	0.056
389.26	0.056
389.72	0.058
390.19	0.055
390.65	0.057
391.11	0.059
391.57	0.059
392.04	0.057
392.50	0.054
392.96	0.054
393.42	0.055
393.88	0.055
394.34	0.056
394.81	0.056
395.27	0.051
395.73	0.051
396.19	0.055
396.65	0.056
397.12	0.052
397.58	0.051
398.04	0.053
398.50	0.055
398.96	0.052
399.42	0.053
399.89	0.052
400.35	0.053
400.81	0.055
401.27	0.056
401.73	0.050
402.19	0.051
402.65	0.050
403.12	0.051
403.58	0.051
404.04	0.050
404.50	0.048
404.96	0.049
405.42	0.048
405.88	0.049
406.34	0.049
406.81	0.049
407.27	0.048
407.73	0.048
408.19	0.045
408.65	0.047
409.11	0.046
409.57	0.047
410.03	0.047
410.49	0.046
410.96	0.046
411.42	0.046
411.88	0.047
412.34	0.044
412.80	0.045
413.26	0.044
413.72	0.045
414.18	0.048
414.64	0.046
415.10	0.046
415.56	0.044
416.02	0.041
416.48	0.042
416.95	0.043
417.41	0.044
417.87	0.044
418.33	0.042
418.79	0.044
419.25	0.046
419.71	0.043
420.17	0.043
420.63	0.043
421.09	0.042
421.55	0.044
422.01	0.038
422.47	0.043
422.93	0.044
423.39	0.043
423.85	0.042
424.31	0.043
424.77	0.041
425.23	0.043
425.69	0.044
426.15	0.043
426.61	0.040
427.07	0.040
427.53	0.043
427.99	0.045
428.45	0.045
428.91	0.040
429.37	0.041
429.83	0.043
430.29	0.043
430.75	0.041
431.21	0.041
431.67	0.042
432.13	0.039
432.59	0.042
433.05	0.040
433.51	0.040
433.97	0.042
434.43	0.042
434.89	0.042
435.35	0.043
435.81	0.039
436.27	0.041
436.73	0.039
437.19	0.041
437.65	0.039
438.11	0.041
438.57	0.042
439.03	0.038
439.48	0.038
439.94	0.039
440.40	0.040
440.86	0.041
441.32	0.041
441.78	0.042
442.24	0.036
442.70	0.039
443.16	0.041
443.62	0.039
444.08	0.039
444.54	0.042
444.99	0.041
445.45	0.040
445.91	0.038
446.37	0.039
446.83	0.038
447.29	0.037
447.75	0.040
448.21	0.039
448.67	0.038
449.12	0.037
449.58	0.035
450.04	0.039
450.50	0.035
450.96	0.036
451.42	0.040
451.88	0.041
452.34	0.039
452.79	0.040
453.25	0.039
453.71	0.036
454.17	0.037
454.63	0.040
455.09	0.039
455.55	0.039
456.00	0.038
456.46	0.038
456.92	0.038
457.38	0.039
457.84	0.037
458.30	0.041
458.75	0.039
459.21	0.039
459.67	0.041
460.13	0.038
460.59	0.040
461.04	0.040
461.50	0.038
461.96	0.037
462.42	0.039
462.88	0.038
463.33	0.038
463.79	0.042
464.25	0.037
464.71	0.040
465.17	0.039
465.62	0.039
466.08	0.039
466.54	0.039
467.00	0.040
467.46	0.041
467.91	0.040
468.37	0.039
468.83	0.040
469.29	0.040
469.74	0.040
470.20	0.039
470.66	0.041
471.12	0.042
471.57	0.042
472.03	0.040
472.49	0.040
472.95	0.040
473.40	0.042
473.86	0.040
474.32	0.041
474.78	0.040
475.23	0.041
475.69	0.039
476.15	0.042
476.60	0.040
477.06	0.040
477.52	0.042
477.98	0.042
478.43	0.041
478.89	0.042
479.35	0.039
479.80	0.040
480.26	0.041
480.72	0.041
481.18	0.041
481.63	0.041
482.09	0.041
482.55	0.040
483.00	0.041
483.46	0.043
483.92	0.042
484.37	0.040
484.83	0.040
485.29	0.043
485.74	0.043
486.20	0.042
486.66	0.040
487.11	0.042
487.57	0.043
488.03	0.043
488.48	0.042
488.94	0.043
489.40	0.040
489.85	0.040
490.31	0.041
490.77	0.043
491.22	0.040
491.68	0.041
492.13	0.043
492.59	0.044
493.05	0.044
493.50	0.040
493.96	0.040
494.42	0.042
494.87	0.042
495.33	0.041
495.78	0.042
496.24	0.042
496.70	0.042
497.15	0.042
497.61	0.041
498.06	0.043
498.52	0.045
498.98	0.043
499.43	0.042
499.89	0.041
500.34	0.041
500.80	0.042
501.25	0.043
501.71	0.042
502.17	0.042
502.62	0.041
503.08	0.041
503.53	0.043
503.99	0.042
504.44	0.043
504.90	0.041
505.36	0.040
505.81	0.039
506.27	0.043
506.72	0.042
507.18	0.043
507.63	0.041
508.09	0.041
508.54	0.042
509.00	0.043
509.45	0.041
509.91	0.041
510.36	0.041
510.82	0.044
511.27	0.041
511.73	0.042
512.19	0.039
512.64	0.043
513.10	0.043
513.55	0.040
514.01	0.041
514.46	0.043
514.92	0.043
515.37	0.042
515.83	0.040
516.28	0.043
516.73	0.041
517.19	0.038
517.64	0.038
518.10	0.042
518.55	0.043
519.01	0.039
519.46	0.040
519.92	0.040
520.37	0.042
520.83	0.044
521.28	0.043
521.74	0.039
522.19	0.041
522.65	0.041
523.10	0.041
523.55	0.041
524.01	0.041
524.46	0.042
524.92	0.042
525.37	0.042
525.83	0.041
526.28	0.040
526.73	0.043
527.19	0.043
527.64	0.043
528.10	0.042
528.55	0.043
529.01	0.042
529.46	0.043
529.91	0.043
530.37	0.041
530.82	0.043
531.28	0.045
531.73	0.042
532.18	0.043
532.64	0.042
533.09	0.045
533.54	0.045
534.00	0.042
534.45	0.045
534.91	0.044
535.36	0.045
535.81	0.044
536.27	0.046
536.72	0.043
537.17	0.046
537.63	0.047
538.08	0.049
538.54	0.045
538.99	0.046
539.44	0.049
539.90	0.046
540.35	0.046
540.80	0.048
541.26	0.047
541.71	0.048
542.16	0.048
542.62	0.050
543.07	0.048
543.52	0.050
543.98	0.050
544.43	0.050
544.88	0.049
545.34	0.052
545.79	0.052
546.24	0.053
546.69	0.049
547.15	0.051
547.60	0.055
548.05	0.055
548.51	0.052
548.96	0.054
549.41	0.055
549.86	0.057
550.32	0.055
550.77	0.055
551.22	0.058
551.68	0.058
552.13	0.058
552.58	0.057
553.03	0.059
553.49	0.059
553.94	0.058
554.39	0.060
554.84	0.064
555.30	0.061
555.75	0.062
556.20	0.064
556.65	0.062
557.11	0.065
557.56	0.064
558.01	0.065
558.46	0.066
558.92	0.064
559.37	0.064
559.82	0.068
560.27	0.068
560.72	0.067
561.18	0.069
561.63	0.072
562.08	0.070
562.53	0.070
562.99	0.070
563.44	0.072
563.89	0.072
564.34	0.075
564.79	0.075
565.25	0.075
565.70	0.074
566.15	0.076
566.60	0.077
567.05	0.078
567.50	0.080
567.96	0.081
568.41	0.081
568.86	0.080
569.31	0.082
569.76	0.081
570.21	0.083
570.67	0.082
571.12	0.085
571.57	0.087
572.02	0.087
572.47	0.088
572.92	0.088
573.37	0.087
573.83	0.092
574.28	0.090
574.73	0.092
575.18	0.091
575.63	0.095
576.08	0.094
576.53	0.096
576.98	0.096
577.44	0.097
577.89	0.097
578.34	0.099
578.79	0.104
579.24	0.102
579.69	0.104
580.14	0.105
580.59	0.104
581.04	0.109
581.49	0.108
581.95	0.110
582.40	0.111
582.85	0.112
583.30	0.113
583.75	0.114
584.20	0.116
584.65	0.116
585.10	0.119
585.55	0.120
586.00	0.123
586.45	0.124
586.90	0.126
587.35	0.126
587.80	0.130
588.25	0.129
588.71	0.130
589.16	0.133
589.61	0.137
590.06	0.138
590.51	0.139
590.96	0.140
591.41	0.143
591.86	0.146
592.31	0.148
592.76	0.149
593.21	0.150
593.66	0.154
594.11	0.155
594.56	0.157
595.01	0.160
595.46	0.161
595.91	0.162
596.36	0.165
596.81	0.168
597.26	0.169
597.71	0.172
598.16	0.172
598.61	0.175
599.06	0.178
599.51	0.177
599.96	0.181
600.41	0.182
600.86	0.183
601.31	0.185
601.76	0.188
602.21	0.189
602.65	0.193
603.10	0.194
603.55	0.198
604.00	0.199
604.45	0.200
604.90	0.201
605.35	0.204
605.80	0.205
606.25	0.205
606.70	0.210
607.15	0.210
607.60	0.209
608.05	0.212
608.50	0.214
608.95	0.216
609.39	0.217
609.84	0.219
610.29	0.217
610.74	0.222
611.19	0.220
611.64	0.224
612.09	0.225
612.54	0.227
612.99	0.228
613.44	0.227
613.88	0.230
614.33	0.226
614.78	0.231
615.23	0.231
615.68	0.231
616.13	0.231
616.58	0.233
617.03	0.232
617.47	0.233
617.92	0.236
618.37	0.235
618.82	0.237
619.27	0.236
619.72	0.236
620.17	0.239
620.61	0.239
621.06	0.240
621.51	0.241
621.96	0.240
622.41	0.244
622.86	0.241
623.30	0.242
623.75	0.243
624.20	0.245
624.65	0.247
625.10	0.246
625.54	0.249
625.99	0.249
626.44	0.250
626.89	0.249
627.34	0.252
627.78	0.253
628.23	0.255
628.68	0.254
629.13	0.257
629.58	0.256
630.02	0.260
630.47	0.260
630.92	0.264
631.37	0.265
631.81	0.265
632.26	0.267
632.71	0.270
633.16	0.272
633.61	0.275
634.05	0.274
634.50	0.280
634.95	0.281
635.40	0.281
635.84	0.284
636.29	0.285
636.74	0.289
637.18	0.292
637.63	0.293
638.08	0.296
638.53	0.298
638.97	0.301
639.42	0.304
639.87	0.309
640.32	0.312
640.76	0.312
641.21	0.315
641.66	0.319
642.10	0.321
642.55	0.322
643.00	0.326
643.44	0.330
643.89	0.333
644.34	0.339
644.79	0.341
645.23	0.343
645.68	0.346
646.13	0.350
646.57	0.353
647.02	0.356
647.47	0.358
647.91	0.364
648.36	0.367
648.81	0.369
649.25	0.373
649.70	0.374
650.15	0.378
650.59	0.380
651.04	0.385
651.48	0.385
651.93	0.390
652.38	0.393
652.82	0.397
653.27	0.399
653.72	0.403
654.16	0.406
654.61	0.406
655.06	0.411
655.50	0.411
655.95	0.413
656.39	0.414
656.84	0.418
657.29	0.419
657.73	0.419
658.18	0.423
658.62	0.427
659.07	0.429
659.52	0.430
659.96	0.431
660.41	0.433
660.85	0.431
661.30	0.434
661.74	0.438
662.19	0.438
662.64	0.436
663.08	0.437
663.53	0.440
663.97	0.439
664.42	0.439
664.86	0.439
665.31	0.437
665.75	0.439
666.20	0.438
666.65	0.438
667.09	0.434
667.54	0.434
667.98	0.433
668.43	0.428
668.87	0.429
669.32	0.426
669.76	0.422
670.21	0.417
670.65	0.415
671.10	0.410
671.54	0.407
671.99	0.402
672.43	0.393
672.88	0.391
673.32	0.383
673.77	0.376
674.21	0.371
674.66	0.365
675.10	0.359
675.55	0.352
675.99	0.346
676.44	0.336
676.88	0.330
677.33	0.323
677.77	0.311
678.22	0.306
678.66	0.298
679.11	0.290
679.55	0.283
679.99	0.276
680.44	0.267
680.88	0.258
681.33	0.249
681.77	0.242
682.22	0.233
682.66	0.225
683.11	0.217
683.55	0.210
683.99	0.203
684.44	0.196
684.88	0.188
685.33	0.181
685.77	0.173
686.21	0.168
686.66	0.162
687.10	0.156
687.55	0.149
687.99	0.144
688.44	0.139
688.88	0.131
689.32	0.128
689.77	0.120
690.21	0.115
690.65	0.112
691.10	0.106
691.54	0.103
691.99	0.097
692.43	0.094
692.87	0.092
693.32	0.086
693.76	0.084
694.20	0.080
694.65	0.078
695.09	0.075
695.53	0.074
695.98	0.070
696.42	0.065
696.86	0.063
697.31	0.063
697.75	0.059
698.19	0.058
698.64	0.056
699.08	0.053
699.52	0.051
699.97	0.050
700.41	0.051
700.85	0.047
701.30	0.046
701.74	0.043
702.18	0.044
702.63	0.039
703.07	0.040
703.51	0.036
703.96	0.039
704.40	0.038
704.84	0.036
705.28	0.037
705.73	0.033
706.17	0.033
706.61	0.034
707.06	0.032
707.50	0.032
707.94	0.031
708.38	0.029
708.83	0.030
709.27	0.027
709.71	0.029
710.15	0.028
710.60	0.027
711.04	0.026
711.48	0.025
711.92	0.028
712.37	0.026
712.81	0.027
713.25	0.025
713.69	0.025
714.13	0.022
714.58	0.022
715.02	0.022
715.46	0.021
715.90	0.024
716.35	0.021
716.79	0.024
717.23	0.024
717.67	0.023
718.11	0.018
718.56	0.022
719.00	0.021
719.44	0.021
719.88	0.024
720.32	0.023
720.76	0.018
721.21	0.024
721.65	0.022
722.09	0.022
722.53	0.025
722.97	0.024
723.41	0.023
723.86	0.022
724.30	0.020
724.74	0.022
725.18	0.022
725.62	0.021
726.06	0.023
726.50	0.021
726.95	0.024
727.39	0.021
727.83	0.021
728.27	0.022
728.71	0.018
729.15	0.022
729.59	0.026
730.03	0.024
730.48	0.022
730.92	0.022
731.36	0.022
731.80	0.025
732.24	0.023
732.68	0.026
733.12	0.024
733.56	0.024
734.00	0.026
734.44	0.026
734.89	0.023
735.33	0.025
735.77	0.022
736.21	0.026
736.65	0.026
737.09	0.026
737.53	0.024
737.97	0.028
738.41	0.027
738.85	0.025
739.29	0.024
739.73	0.025
740.17	0.025
740.61	0.026
741.05	0.028
741.49	0.024
741.93	0.027
742.37	0.027
742.81	0.027
743.26	0.024
743.70	0.025
744.14	0.027
744.58	0.026
745.02	0.027
745.46	0.024
745.90	0.025
746.34	0.024
746.78	0.028
747.22	0.024
747.66	0.026
748.10	0.026
748.54	0.026
748.98	0.025
749.42	0.028
749.86	0.026
750.29	0.027
750.73	0.026
751.17	0.025
751.61	0.028
752.05	0.028
752.49	0.026
752.93	0.025
753.37	0.026
753.81	0.026
754.25	0.022
754.69	0.024
755.13	0.024
755.57	0.025
756.01	0.025
756.45	0.024
756.89	0.025
757.33	0.027
757.77	0.025
758.21	0.025
758.64	0.027
759.08	0.025
759.52	0.025
759.96	0.023
760.40	0.025
760.84	0.024
761.28	0.026
761.72	0.023
762.16	0.025
762.60	0.024
763.03	0.023
763.47	0.023
763.91	0.023
764.35	0.024
764.79	0.028
765.23	0.028
765.67	0.025
766.11	0.025
766.54	0.024
766.98	0.025
767.42	0.026
767.86	0.025
768.30	0.028
768.74	0.026
769.17	0.028
769.61	0.026
770.05	0.025
770.49	0.025
770.93	0.026
771.37	0.027
771.80	0.028
772.24	0.025
772.68	0.027
773.12	0.027
773.56	0.022
774.00	0.025
774.43	0.026
774.87	0.023
775.31	0.025
775.75	0.027
776.19	0.027
776.62	0.027
777.06	0.021
777.50	0.025
777.94	0.026
778.37	0.025
778.81	0.027
779.25	0.026
779.69	0.024
780.13	0.024
780.56	0.025
781.00	0.027
781.44	0.025
781.88	0.025
782.31	0.030
782.75	0.028
783.19	0.027
783.63	0.028
784.06	0.023
784.50	0.028
784.94	0.025
785.37	0.024
785.81	0.027
786.25	0.021
786.69	0.022
787.12	0.025
787.56	0.028
788.00	0.022
788.43	0.024
788.87	0.026
789.31	0.025
789.75	0.025
790.18	0.022
790.62	0.026
791.06	0.025
791.49	0.025
791.93	0.023
792.37	0.019
792.80	0.024
793.24	0.028
793.68	0.027
794.11	0.025
794.55	0.024
794.99	0.022
795.42	0.023
795.86	0.026
796.30	0.025
796.73	0.023
797.17	0.023
797.61	0.021
798.04	0.019
798.48	0.024
798.91	0.019
799.35	0.023
799.79	0.024
800.22	0.022
800.66	0.019
801.10	0.024
801.53	0.023
801.97	0.023
802.40	0.026
802.84	0.022
803.28	0.025
803.71	0.023
804.15	0.026
804.58	0.024
805.02	0.019
805.46	0.022
805.89	0.024
806.33	0.024
806.76	0.023
807.20	0.027
807.63	0.026
808.07	0.026
808.51	0.021
808.94	0.025
809.38	0.028
809.81	0.020
810.25	0.024
810.68	0.026
811.12	0.026
811.55	0.023
811.99	0.025
812.42	0.025
812.86	0.026
813.29	0.024
813.73	0.026
814.17	0.022
814.60	0.024
815.04	0.023
815.47	0.026
815.91	0.027
816.34	0.023
816.78	0.024
817.21	0.022
817.65	0.026
818.08	0.026
818.52	0.018
818.95	0.025
819.39	0.026
819.82	0.028
820.25	0.026
820.69	0.029
821.12	0.024
821.56	0.028
821.99	0.023
822.43	0.027
822.86	0.023
823.30	0.022
823.73	0.023
824.17	0.027
824.60	0.022
825.04	0.027
825.47	0.023
825.90	0.028
826.34	0.023
826.77	0.029
827.21	0.027
827.64	0.027
828.08	0.032
828.51	0.026
828.94	0.023
829.38	0.028
829.81	0.030
830.25	0.028
830.68	0.028
831.11	0.033
831.55	0.030
831.98	0.029
832.42	0.037
832.85	0.031
833.28	0.028
833.72	0.029
834.15	0.034
834.58	0.035
835.02	0.032
835.45	0.027
835.88	0.031
836.32	0.030
836.75	0.035
837.19	0.029
837.62	0.033
838.05	0.035
838.49	0.032
838.92	0.029
839.35	0.036
839.79	0.027
840.22	0.032
840.65	0.036
841.09	0.039
841.52	0.035
841.95	0.034
842.39	0.032
842.82	0.030
843.25	0.033
843.68	0.034
844.12	0.032
844.55	0.036
844.98	0.028
845.42	0.032
845.85	0.038
846.28	0.035
846.71	0.032
847.15	0.037
847.58	0.035
848.01	0.031
848.45	0.036
848.88	0.035
849.31	0.034
849.74	0.032
850.18	0.032
850.61	0.033
851.04	0.037
851.47	0.034
851.91	0.035
852.34	0.036
852.77	0.036
853.20	0.033
853.64	0.038
854.07	0.031
854.50	0.038
854.93	0.035
855.36	0.036
855.80	0.034
856.23	0.039
856.66	0.037
857.09	0.035
857.52	0.039
857.96	0.038
858.39	0.037
858.82	0.036
859.25	0.034
859.68	0.042
860.12	0.037
860.55	0.041
860.98	0.036
861.41	0.034
861.84	0.036
862.27	0.037
862.71	0.038
863.14	0.039
863.57	0.041
864.00	0.041
864.43	0.042
864.86	0.034
865.30	0.036
865.73	0.035
866.16	0.042
866.59	0.039
867.02	0.040
867.45	0.040
867.88	0.038
868.31	0.038
868.75	0.035
869.18	0.043
869.61	0.040
870.04	0.040
870.47	0.046
870.90	0.040
871.33	0.036
871.76	0.038
872.19	0.041
872.62	0.036
873.06	0.042
873.49	0.041
873.92	0.041
874.35	0.037
874.78	0.038
875.21	0.041
875.64	0.046
876.07	0.040
876.50	0.046
876.93	0.045
877.36	0.043
877.79	0.042
878.22	0.043
878.65	0.046
879.08	0.046
879.51	0.040
879.94	0.043
880.37	0.044
880.80	0.039
881.23	0.041
881.67	0.042
882.10	0.036
882.53	0.043
882.96	0.044
883.39	0.045
883.82	0.046
884.25	0.049
884.68	0.050
885.11	0.046
885.54	0.048
885.97	0.041
886.39	0.052
886.82	0.045
887.25	0.045
887.68	0.046
888.11	0.049
888.54	0.047
888.97	0.044
889.40	0.045
889.83	0.047
890.26	0.048
890.69	0.052
891.12	0.049
891.55	0.053
891.98	0.046
892.41	0.047
892.84	0.048
893.27	0.048
893.70	0.047
894.13	0.055
894.56	0.050
894.98	0.049
895.41	0.046
895.84	0.048
896.27	0.048
896.70	0.053
897.13	0.055
897.56	0.053
897.99	0.051
898.42	0.052
898.85	0.063
899.27	0.051
899.70	0.051
900.13	0.057
900.56	0.056
900.99	0.053
901.42	0.053
901.85	0.059
902.28	0.054
902.70	0.055
903.13	0.052
903.56	0.054
903.99	0.054
904.42	0.055
904.85	0.050
905.27	0.056
905.70	0.054
906.13	0.055
906.56	0.059
906.99	0.053
907.42	0.054
907.84	0.053
908.27	0.058
908.70	0.053
909.13	0.056
909.56	0.053
909.98	0.056
910.41	0.053
910.84	0.054
911.27	0.053
911.70	0.052
912.12	0.059
912.55	0.057
912.98	0.056
913.41	0.058
913.84	0.056
914.26	0.055
914.69	0.058
915.12	0.058
915.55	0.057
915.97	0.058
916.40	0.054
916.83	0.056
917.26	0.052
917.68	0.052
918.11	0.055
918.54	0.054
918.97	0.055
919.39	0.057
919.82	0.054
920.25	0.059
920.67	0.053
921.10	0.053
921.53	0.056
921.96	0.055
922.38	0.052
922.81	0.060
923.24	0.062
923.66	0.061
924.09	0.059
924.52	0.064
924.94	0.060
925.37	0.061
925.80	0.065
926.22	0.065
926.65	0.064
927.08	0.062
927.50	0.070
927.93	0.070
928.36	0.069
928.78	0.069
929.21	0.073
929.64	0.075
930.06	0.070
930.49	0.070
930.92	0.072
931.34	0.072
931.77	0.073
932.20	0.075
932.62	0.075
933.05	0.079
933.47	0.080
933.90	0.085
934.33	0.081
934.75	0.081
935.18	0.083
935.61	0.085
936.03	0.084
936.46	0.088
936.88	0.090
937.31	0.096
937.73	0.096
938.16	0.091
938.59	0.097
939.01	0.099
939.44	0.099
939.86	0.098
940.29	0.101
940.71	0.106
941.14	0.105
941.57	0.107
941.99	0.102
942.42	0.111
942.84	0.112
943.27	0.109
943.69	0.119
944.12	0.122
944.54	0.119
944.97	0.118
945.39	0.118
945.82	0.127
946.24	0.122
946.67	0.130
947.09	0.130
947.52	0.128
947.94	0.137
948.37	0.135
948.79	0.128
949.22	0.139
949.64	0.144
950.07	0.150
950.49	0.147
950.92	0.160
951.34	0.164
951.77	0.157
952.19	0.160
952.62	0.166
953.04	0.167
953.47	0.162
953.89	0.170
954.32	0.176
954.74	0.176
955.17	0.179
955.59	0.185
956.01	0.187
956.44	0.195
956.86	0.194
957.29	0.194
957.71	0.195
958.14	0.199
958.56	0.202
958.98	0.209
959.41	0.206
959.83	0.208
960.26	0.209
960.68	0.212
961.10	0.210
961.53	0.208
961.95	0.218
962.38	0.219
962.80	0.219
963.22	0.214
963.65	0.215
964.07	0.212
964.50	0.221
964.92	0.223
965.34	0.218
965.77	0.225
966.19	0.224
966.61	0.216
967.04	0.213
967.46	0.228
967.88	0.221
968.31	0.223
968.73	0.222
969.15	0.224
969.58	0.224
970.00	0.228
970.42	0.223
970.85	0.227
971.27	0.217
971.69	0.231
972.12	0.226
972.54	0.230
972.96	0.232
973.39	0.227
973.81	0.230
974.23	0.231
974.65	0.231
975.08	0.226
975.50	0.224
975.92	0.234
976.35	0.228
976.77	0.230
977.19	0.227
977.61	0.233
978.04	0.234
978.46	0.227
978.88	0.230
979.30	0.231
979.73	0.230
980.15	0.224
980.57	0.227
980.99	0.231
981.42	0.231
981.84	0.232
982.26	0.230
982.68	0.231
983.11	0.224
983.53	0.233
983.95	0.229
984.37	0.229
984.79	0.230
985.22	0.225
985.64	0.223
986.06	0.222
986.48	0.222
986.90	0.217
987.33	0.225
987.75	0.223
988.17	0.232
988.59	0.222
989.01	0.222
989.43	0.222
989.86	0.220
990.28	0.221
990.70	0.220
991.12	0.218
991.54	0.217
991.96	0.213
992.39	0.219
992.81	0.219
993.23	0.217
993.65	0.217
994.07	0.216
994.49	0.217
994.91	0.220
995.34	0.209
995.76	0.207
996.18	0.215
996.60	0.214
997.02	0.208
997.44	0.205
997.86	0.202
998.28	0.205
998.70	0.209
999.12	0.203
999.55	0.209
999.97	0.207
1000.39	0.201
1000.81	0.207
1001.23	0.202
1001.65	0.203
1002.07	0.202
1002.49	0.196
1002.91	0.197
1003.33	0.199
1003.75	0.197
1004.17	0.192
1004.59	0.196
1005.01	0.205
1005.43	0.195
1005.85	0.191
1006.28	0.199
1006.70	0.195
1007.12	0.186
1007.54	0.186
1007.96	0.172
1008.38	0.186
1008.80	0.187
1009.22	0.181
1009.64	0.179
1010.06	0.195
1010.48	0.181
1010.90	0.180
1011.32	0.182
1011.74	0.172
1012.16	0.176
1012.58	0.173
1013.00	0.166
1013.42	0.185
1013.84	0.171
1014.26	0.174
1014.67	0.172
1015.09	0.168
1015.51	0.156
1015.93	0.173
1016.35	0.173
1016.77	0.174
1017.19	0.172
1017.61	0.167
1018.03	0.168
1018.45	0.161
1018.87	0.154
1019.29	0.161
1019.71	0.160
1020.13	0.155
1020.55	0.153
1020.97	0.156
1021.38	0.141
1021.80	0.154
1022.22	0.150
1022.64	0.148
1023.06	0.146
1023.48	0.148
1023.90	0.143
1024.32	0.138
1024.74	0.147
1025.15	0.157
1025.57	0.145
1025.99	0.138
1026.41	0.147
1026.83	0.149
1027.25	0.152
1027.67	0.147
1028.08	0.145
1028.50	0.137
1028.92	0.145
1029.34	0.140
1029.76	0.126
1030.18	0.127
1030.60	0.124
1031.01	0.140
1031.43	0.124
1031.85	0.128
1032.27	0.145
1032.69	0.114
1033.10	0.119
1033.52	0.127
1033.94	0.127
1034.36	0.141
1034.78	0.135
1035.19	0.117
1035.61	0.137
1036.03	0.120
1036.45	0.122
1036.87	0.129
1037.28	0.120
1037.70	0.111
1038.12	0.113
1038.54	0.114
1038.95	0.098
1039.37	0.121
1039.79	0.107
1040.21	0.115
1040.62	0.113
1041.04	0.119
1041.46	0.118
1041.88	0.110
1042.29	0.101
1042.71	0.111
1043.13	0.083
1043.55	0.106
1043.96	0.109
1044.38	0.109
1044.80	0.100
1045.21	0.105
1045.63	0.105
1046.05	0.110
1046.47	0.101
1046.88	0.109
1047.30	0.126
1047.72	0.104
1048.13	0.093
1048.55	0.072
1048.97	0.098
1049.38	0.107
1049.80	0.102
1050.22	0.097
1050.63	0.102
1051.05	0.104
1051.47	0.085
1051.88	0.115
1052.30	0.082
1052.72	0.109
1053.13	0.118
1053.55	0.106
1053.97	0.099
1054.38	0.089
1054.80	0.097
1055.21	0.111
1055.63	0.096
1056.05	0.102
1056.46	0.116
1056.88	0.116
1057.29	0.100
1057.71	0.107
1058.13	0.078
1058.54	0.096
1058.96	0.090
1059.37	0.089
1059.79	0.082
1060.21	0.100
1060.62	0.073
1061.04	0.150
1061.45	0.044
1061.87	0.099
1062.28	0.081
1062.70	0.147
1063.12	0.085
1063.53	0.091
1063.95	0.078
1064.36	0.111
1064.78	0.077
1065.19	0.065
1065.61	0.100
1066.02	0.053
1066.44	0.063
1066.85	0.110
1067.27	0.113
1067.68	0.129
1068.10	0.153
1068.51	0.101
1068.93	0.103
1069.35	0.082
1069.76	0.128
1070.17	0.181
1070.59	0.103
1071.00	0.021
1071.42	0.153
1071.83	0.129
1072.25	0.167
1072.66	0.078
1073.08	0.156
1073.49	0.063
1073.91	0.119
1074.32	0.090
1074.74	0.229
1075.15	0.170
1075.57	0.148
1075.98	0.386
1076.40	0.090
1076.81	0.103
1077.22	0.224
1077.64	0.063
1078.05	0.060
1078.47	-0.018
1078.88	0.084
1079.30	0.153
1079.71	0.297
1080.12	0.251
1080.54	0.131
1080.95	0.345
1081.37	0.554
1081.78	0.135
1082.19	0.101
1082.61	0.175
1083.02	0.039
1083.44	0.278
1083.85	0.173
1084.26	0.091
1084.68	0.321
1085.09	0.170
1085.50	0.064
1085.92	0.286
1086.33	0.104
1086.74	0.115
1087.16	0.157
1087.57	0.107
1087.98	0.229
1088.40	0.597
1088.81	0.073
1089.22	0.262
1089.64	0.341
1090.05	0.135
1090.46	-0.136
1090.88	0.985
1091.29	0.085
1091.70	0.166
1092.12	0.607
1092.53	0.082
1092.94	0.298
1093.36	0.125
1093.77	0.628
1094.18	0.689
1094.59	0.035
1095.01	0.154
1095.42	0.097
1095.83	0.255
1096.25	0.188
1096.66	0.453
1097.07	0.169
1097.48	0.635
1097.90	-0.110
1098.31	0.060
1098.72	0.222
1099.13	-0.104
>>>>>End Processed Spectral Data<<<<<
