SpectraSuite Data File
++++++++++++++++++++++++++++++++++++
Date: Tue Jul 11 16:33:32 CEST 2017
User: IPCE
Dark Spectrum Present: Yes
Reference Spectrum Present: Yes
Number of Sampled Component Spectra: 1
Spectrometers: HR+C0708
Integration Time (usec): 1000 (HR+C0708)
Spectra Averaged: 10 (HR+C0708)
Boxcar Smoothing: 0 (HR+C0708)
Correct for Electrical Dark: No (HR+C0708)
Strobe/Lamp Enabled: No (HR+C0708)
Correct for Detector Non-linearity: No (HR+C0708)
Correct for Stray Light: No (HR+C0708)
Number of Pixels in Processed Spectrum: 2048
>>>>>Begin Processed Spectral Data<<<<<
188.76	0.141
189.23	-0.053
189.70	-0.153
190.17	-0.121
190.64	-0.000
191.12	0.354
191.59	0.045
192.06	0.254
192.53	0.245
193.01	-0.000
193.48	-0.320
193.95	0.118
194.42	-0.027
194.90	0.074
195.37	-0.076
195.84	0.090
196.31	1.647
196.78	0.016
197.26	0.055
197.73	0.457
198.20	0.429
198.67	-0.003
199.14	-0.113
199.62	0.135
200.09	0.263
200.56	0.203
201.03	0.132
201.50	0.298
201.97	0.199
202.45	0.435
202.92	0.316
203.39	0.239
203.86	0.331
204.33	0.495
204.80	0.266
205.28	0.302
205.75	0.157
206.22	0.434
206.69	0.568
207.16	0.207
207.63	0.236
208.11	0.303
208.58	0.254
209.05	0.196
209.52	0.443
209.99	0.371
210.46	0.284
210.93	0.210
211.41	0.201
211.88	0.305
212.35	0.329
212.82	0.218
213.29	0.335
213.76	0.292
214.23	0.294
214.70	0.290
215.18	0.255
215.65	0.217
216.12	0.227
216.59	0.255
217.06	0.267
217.53	0.268
218.00	0.305
218.47	0.375
218.94	0.266
219.41	0.232
219.89	0.413
220.36	0.356
220.83	0.373
221.30	0.233
221.77	0.361
222.24	0.395
222.71	0.416
223.18	0.386
223.65	0.395
224.12	0.421
224.59	0.538
225.06	0.544
225.54	0.445
226.01	0.586
226.48	0.601
226.95	0.554
227.42	0.739
227.89	0.711
228.36	0.788
228.83	0.847
229.30	0.763
229.77	0.912
230.24	0.960
230.71	1.057
231.18	1.021
231.65	1.154
232.12	1.332
232.59	1.190
233.06	1.241
233.53	1.425
234.00	1.484
234.47	1.429
234.94	1.568
235.41	1.582
235.88	1.587
236.35	1.522
236.82	1.705
237.29	1.753
237.76	1.767
238.23	1.652
238.70	1.767
239.17	1.925
239.64	1.770
240.11	1.850
240.58	1.963
241.05	2.071
241.52	1.988
241.99	2.034
242.46	1.994
242.93	2.050
243.40	2.031
243.87	2.166
244.34	2.105
244.81	2.053
245.28	1.997
245.75	2.164
246.22	2.111
246.69	2.155
247.16	2.267
247.63	2.207
248.10	2.109
248.57	2.096
249.04	2.120
249.51	2.178
249.98	2.055
250.45	2.247
250.92	2.152
251.39	2.026
251.85	1.972
252.32	1.937
252.79	1.760
253.26	1.693
253.73	1.604
254.20	1.518
254.67	1.442
255.14	1.357
255.61	1.312
256.08	1.255
256.55	1.200
257.02	1.150
257.49	1.114
257.95	1.074
258.42	1.033
258.89	0.993
259.36	0.965
259.83	0.943
260.30	0.915
260.77	0.898
261.24	0.871
261.71	0.848
262.17	0.831
262.64	0.813
263.11	0.791
263.58	0.780
264.05	0.759
264.52	0.746
264.99	0.732
265.46	0.716
265.92	0.703
266.39	0.691
266.86	0.677
267.33	0.669
267.80	0.659
268.27	0.648
268.74	0.636
269.20	0.628
269.67	0.617
270.14	0.609
270.61	0.598
271.08	0.593
271.55	0.583
272.01	0.572
272.48	0.567
272.95	0.562
273.42	0.552
273.89	0.544
274.36	0.540
274.82	0.533
275.29	0.530
275.76	0.522
276.23	0.517
276.70	0.512
277.16	0.511
277.63	0.511
278.10	0.500
278.57	0.499
279.04	0.493
279.50	0.490
279.97	0.487
280.44	0.484
280.91	0.477
281.38	0.479
281.84	0.477
282.31	0.473
282.78	0.475
283.25	0.470
283.72	0.466
284.18	0.466
284.65	0.467
285.12	0.467
285.59	0.462
286.05	0.462
286.52	0.465
286.99	0.462
287.46	0.456
287.92	0.456
288.39	0.458
288.86	0.456
289.33	0.456
289.79	0.452
290.26	0.447
290.73	0.450
291.20	0.446
291.66	0.445
292.13	0.439
292.60	0.433
293.07	0.435
293.53	0.431
294.00	0.423
294.47	0.416
294.93	0.413
295.40	0.405
295.87	0.404
296.34	0.398
296.80	0.389
297.27	0.381
297.74	0.376
298.20	0.370
298.67	0.365
299.14	0.357
299.60	0.350
300.07	0.343
300.54	0.335
301.01	0.324
301.47	0.323
301.94	0.318
302.41	0.309
302.87	0.304
303.34	0.296
303.81	0.294
304.27	0.284
304.74	0.282
305.21	0.277
305.67	0.267
306.14	0.266
306.61	0.259
307.07	0.256
307.54	0.250
308.01	0.245
308.47	0.243
308.94	0.240
309.40	0.235
309.87	0.232
310.34	0.229
310.80	0.229
311.27	0.224
311.74	0.222
312.20	0.218
312.67	0.214
313.13	0.215
313.60	0.214
314.07	0.212
314.53	0.206
315.00	0.207
315.47	0.205
315.93	0.202
316.40	0.208
316.86	0.200
317.33	0.200
317.80	0.197
318.26	0.199
318.73	0.197
319.19	0.193
319.66	0.194
320.13	0.192
320.59	0.191
321.06	0.186
321.52	0.186
321.99	0.187
322.45	0.186
322.92	0.183
323.39	0.183
323.85	0.184
324.32	0.182
324.78	0.177
325.25	0.175
325.71	0.175
326.18	0.174
326.64	0.174
327.11	0.172
327.58	0.174
328.04	0.169
328.51	0.170
328.97	0.167
329.44	0.169
329.90	0.168
330.37	0.164
330.83	0.164
331.30	0.160
331.76	0.159
332.23	0.158
332.69	0.157
333.16	0.156
333.62	0.154
334.09	0.151
334.56	0.153
335.02	0.151
335.49	0.147
335.95	0.146
336.42	0.142
336.88	0.140
337.35	0.138
337.81	0.142
338.28	0.140
338.74	0.140
339.20	0.138
339.67	0.139
340.13	0.137
340.60	0.134
341.06	0.133
341.53	0.132
341.99	0.133
342.46	0.128
342.92	0.130
343.39	0.131
343.85	0.126
344.32	0.125
344.78	0.126
345.25	0.125
345.71	0.127
346.17	0.128
346.64	0.125
347.10	0.123
347.57	0.122
348.03	0.120
348.50	0.117
348.96	0.116
349.43	0.120
349.89	0.119
350.35	0.121
350.82	0.116
351.28	0.117
351.75	0.115
352.21	0.116
352.67	0.109
353.14	0.114
353.60	0.110
354.07	0.110
354.53	0.109
355.00	0.110
355.46	0.108
355.92	0.108
356.39	0.110
356.85	0.103
357.31	0.104
357.78	0.106
358.24	0.101
358.71	0.101
359.17	0.102
359.63	0.097
360.10	0.099
360.56	0.099
361.03	0.094
361.49	0.097
361.95	0.094
362.42	0.092
362.88	0.092
363.34	0.089
363.81	0.090
364.27	0.089
364.73	0.089
365.20	0.085
365.66	0.088
366.12	0.085
366.59	0.083
367.05	0.083
367.51	0.079
367.98	0.079
368.44	0.082
368.90	0.081
369.37	0.080
369.83	0.079
370.29	0.079
370.76	0.078
371.22	0.077
371.68	0.078
372.15	0.076
372.61	0.078
373.07	0.078
373.54	0.075
374.00	0.076
374.46	0.077
374.92	0.072
375.39	0.075
375.85	0.075
376.31	0.076
376.78	0.076
377.24	0.074
377.70	0.075
378.16	0.076
378.63	0.071
379.09	0.073
379.55	0.074
380.01	0.073
380.48	0.072
380.94	0.073
381.40	0.073
381.87	0.071
382.33	0.070
382.79	0.070
383.25	0.071
383.72	0.074
384.18	0.071
384.64	0.071
385.10	0.070
385.56	0.073
386.03	0.070
386.49	0.070
386.95	0.068
387.41	0.069
387.88	0.070
388.34	0.069
388.80	0.067
389.26	0.068
389.72	0.068
390.19	0.068
390.65	0.067
391.11	0.069
391.57	0.068
392.04	0.068
392.50	0.066
392.96	0.068
393.42	0.067
393.88	0.072
394.34	0.068
394.81	0.064
395.27	0.065
395.73	0.064
396.19	0.068
396.65	0.068
397.12	0.065
397.58	0.064
398.04	0.067
398.50	0.064
398.96	0.066
399.42	0.062
399.89	0.067
400.35	0.063
400.81	0.065
401.27	0.067
401.73	0.065
402.19	0.063
402.65	0.063
403.12	0.062
403.58	0.064
404.04	0.061
404.50	0.062
404.96	0.063
405.42	0.060
405.88	0.062
406.34	0.062
406.81	0.063
407.27	0.060
407.73	0.062
408.19	0.059
408.65	0.059
409.11	0.060
409.57	0.062
410.03	0.063
410.49	0.059
410.96	0.057
411.42	0.058
411.88	0.057
412.34	0.057
412.80	0.060
413.26	0.058
413.72	0.057
414.18	0.060
414.64	0.056
415.10	0.058
415.56	0.057
416.02	0.055
416.48	0.057
416.95	0.056
417.41	0.058
417.87	0.054
418.33	0.055
418.79	0.056
419.25	0.056
419.71	0.054
420.17	0.054
420.63	0.054
421.09	0.057
421.55	0.057
422.01	0.050
422.47	0.054
422.93	0.055
423.39	0.055
423.85	0.056
424.31	0.054
424.77	0.053
425.23	0.053
425.69	0.055
426.15	0.056
426.61	0.055
427.07	0.053
427.53	0.055
427.99	0.055
428.45	0.056
428.91	0.054
429.37	0.055
429.83	0.055
430.29	0.057
430.75	0.053
431.21	0.054
431.67	0.055
432.13	0.053
432.59	0.052
433.05	0.050
433.51	0.054
433.97	0.055
434.43	0.052
434.89	0.054
435.35	0.052
435.81	0.051
436.27	0.050
436.73	0.054
437.19	0.053
437.65	0.052
438.11	0.052
438.57	0.054
439.03	0.049
439.48	0.051
439.94	0.051
440.40	0.053
440.86	0.052
441.32	0.050
441.78	0.053
442.24	0.049
442.70	0.050
443.16	0.049
443.62	0.048
444.08	0.051
444.54	0.053
444.99	0.050
445.45	0.050
445.91	0.051
446.37	0.051
446.83	0.050
447.29	0.052
447.75	0.051
448.21	0.052
448.67	0.052
449.12	0.049
449.58	0.049
450.04	0.049
450.50	0.047
450.96	0.048
451.42	0.050
451.88	0.056
452.34	0.050
452.79	0.048
453.25	0.051
453.71	0.048
454.17	0.049
454.63	0.049
455.09	0.051
455.55	0.050
456.00	0.048
456.46	0.051
456.92	0.049
457.38	0.051
457.84	0.047
458.30	0.052
458.75	0.048
459.21	0.047
459.67	0.049
460.13	0.050
460.59	0.051
461.04	0.048
461.50	0.048
461.96	0.048
462.42	0.050
462.88	0.049
463.33	0.050
463.79	0.051
464.25	0.048
464.71	0.051
465.17	0.049
465.62	0.050
466.08	0.047
466.54	0.049
467.00	0.051
467.46	0.050
467.91	0.051
468.37	0.051
468.83	0.050
469.29	0.050
469.74	0.050
470.20	0.049
470.66	0.050
471.12	0.050
471.57	0.050
472.03	0.050
472.49	0.051
472.95	0.050
473.40	0.052
473.86	0.050
474.32	0.049
474.78	0.049
475.23	0.049
475.69	0.050
476.15	0.052
476.60	0.050
477.06	0.049
477.52	0.050
477.98	0.050
478.43	0.050
478.89	0.053
479.35	0.050
479.80	0.051
480.26	0.048
480.72	0.049
481.18	0.049
481.63	0.050
482.09	0.049
482.55	0.048
483.00	0.050
483.46	0.052
483.92	0.051
484.37	0.051
484.83	0.051
485.29	0.051
485.74	0.051
486.20	0.051
486.66	0.050
487.11	0.051
487.57	0.052
488.03	0.052
488.48	0.050
488.94	0.050
489.40	0.051
489.85	0.052
490.31	0.050
490.77	0.053
491.22	0.050
491.68	0.053
492.13	0.051
492.59	0.052
493.05	0.049
493.50	0.051
493.96	0.049
494.42	0.051
494.87	0.051
495.33	0.049
495.78	0.050
496.24	0.048
496.70	0.051
497.15	0.052
497.61	0.051
498.06	0.052
498.52	0.051
498.98	0.050
499.43	0.048
499.89	0.048
500.34	0.049
500.80	0.051
501.25	0.052
501.71	0.049
502.17	0.050
502.62	0.050
503.08	0.049
503.53	0.049
503.99	0.051
504.44	0.050
504.90	0.048
505.36	0.047
505.81	0.047
506.27	0.049
506.72	0.050
507.18	0.050
507.63	0.049
508.09	0.049
508.54	0.049
509.00	0.050
509.45	0.050
509.91	0.050
510.36	0.049
510.82	0.051
511.27	0.048
511.73	0.049
512.19	0.047
512.64	0.049
513.10	0.050
513.55	0.049
514.01	0.048
514.46	0.049
514.92	0.048
515.37	0.049
515.83	0.048
516.28	0.050
516.73	0.048
517.19	0.047
517.64	0.049
518.10	0.049
518.55	0.050
519.01	0.048
519.46	0.048
519.92	0.049
520.37	0.051
520.83	0.051
521.28	0.048
521.74	0.049
522.19	0.050
522.65	0.047
523.10	0.048
523.55	0.049
524.01	0.050
524.46	0.048
524.92	0.050
525.37	0.049
525.83	0.049
526.28	0.049
526.73	0.052
527.19	0.051
527.64	0.051
528.10	0.049
528.55	0.051
529.01	0.051
529.46	0.049
529.91	0.049
530.37	0.048
530.82	0.052
531.28	0.052
531.73	0.049
532.18	0.051
532.64	0.051
533.09	0.051
533.54	0.050
534.00	0.047
534.45	0.052
534.91	0.050
535.36	0.051
535.81	0.049
536.27	0.054
536.72	0.049
537.17	0.052
537.63	0.052
538.08	0.053
538.54	0.051
538.99	0.050
539.44	0.055
539.90	0.054
540.35	0.054
540.80	0.053
541.26	0.051
541.71	0.054
542.16	0.055
542.62	0.054
543.07	0.056
543.52	0.055
543.98	0.055
544.43	0.054
544.88	0.057
545.34	0.056
545.79	0.056
546.24	0.056
546.69	0.055
547.15	0.054
547.60	0.060
548.05	0.057
548.51	0.057
548.96	0.057
549.41	0.058
549.86	0.060
550.32	0.060
550.77	0.059
551.22	0.062
551.68	0.059
552.13	0.060
552.58	0.061
553.03	0.062
553.49	0.061
553.94	0.060
554.39	0.063
554.84	0.064
555.30	0.062
555.75	0.063
556.20	0.065
556.65	0.064
557.11	0.067
557.56	0.067
558.01	0.065
558.46	0.067
558.92	0.067
559.37	0.067
559.82	0.069
560.27	0.069
560.72	0.068
561.18	0.069
561.63	0.070
562.08	0.069
562.53	0.068
562.99	0.068
563.44	0.070
563.89	0.070
564.34	0.071
564.79	0.072
565.25	0.074
565.70	0.074
566.15	0.074
566.60	0.076
567.05	0.076
567.50	0.077
567.96	0.078
568.41	0.079
568.86	0.078
569.31	0.079
569.76	0.081
570.21	0.079
570.67	0.078
571.12	0.080
571.57	0.082
572.02	0.083
572.47	0.085
572.92	0.083
573.37	0.083
573.83	0.085
574.28	0.087
574.73	0.085
575.18	0.088
575.63	0.088
576.08	0.088
576.53	0.088
576.98	0.090
577.44	0.090
577.89	0.090
578.34	0.092
578.79	0.095
579.24	0.094
579.69	0.094
580.14	0.096
580.59	0.096
581.04	0.098
581.49	0.099
581.95	0.101
582.40	0.101
582.85	0.100
583.30	0.103
583.75	0.105
584.20	0.106
584.65	0.105
585.10	0.106
585.55	0.109
586.00	0.111
586.45	0.113
586.90	0.113
587.35	0.113
587.80	0.115
588.25	0.116
588.71	0.116
589.16	0.117
589.61	0.120
590.06	0.122
590.51	0.123
590.96	0.123
591.41	0.126
591.86	0.127
592.31	0.129
592.76	0.130
593.21	0.130
593.66	0.132
594.11	0.135
594.56	0.137
595.01	0.138
595.46	0.140
595.91	0.139
596.36	0.143
596.81	0.144
597.26	0.145
597.71	0.147
598.16	0.147
598.61	0.148
599.06	0.152
599.51	0.151
599.96	0.154
600.41	0.155
600.86	0.156
601.31	0.157
601.76	0.160
602.21	0.160
602.65	0.162
603.10	0.163
603.55	0.165
604.00	0.167
604.45	0.167
604.90	0.169
605.35	0.172
605.80	0.170
606.25	0.171
606.70	0.176
607.15	0.177
607.60	0.177
608.05	0.177
608.50	0.178
608.95	0.183
609.39	0.181
609.84	0.183
610.29	0.181
610.74	0.185
611.19	0.183
611.64	0.187
612.09	0.188
612.54	0.188
612.99	0.188
613.44	0.190
613.88	0.193
614.33	0.188
614.78	0.192
615.23	0.190
615.68	0.193
616.13	0.193
616.58	0.194
617.03	0.193
617.47	0.195
617.92	0.196
618.37	0.196
618.82	0.197
619.27	0.198
619.72	0.197
620.17	0.198
620.61	0.199
621.06	0.201
621.51	0.201
621.96	0.201
622.41	0.204
622.86	0.201
623.30	0.203
623.75	0.202
624.20	0.205
624.65	0.206
625.10	0.205
625.54	0.206
625.99	0.207
626.44	0.207
626.89	0.210
627.34	0.211
627.78	0.210
628.23	0.212
628.68	0.213
629.13	0.213
629.58	0.212
630.02	0.216
630.47	0.217
630.92	0.220
631.37	0.220
631.81	0.220
632.26	0.221
632.71	0.225
633.16	0.227
633.61	0.228
634.05	0.228
634.50	0.231
634.95	0.230
635.40	0.232
635.84	0.237
636.29	0.237
636.74	0.238
637.18	0.240
637.63	0.241
638.08	0.243
638.53	0.247
638.97	0.248
639.42	0.250
639.87	0.252
640.32	0.255
640.76	0.257
641.21	0.259
641.66	0.261
642.10	0.264
642.55	0.263
643.00	0.267
643.44	0.270
643.89	0.274
644.34	0.275
644.79	0.276
645.23	0.279
645.68	0.282
646.13	0.286
646.57	0.285
647.02	0.287
647.47	0.290
647.91	0.291
648.36	0.297
648.81	0.298
649.25	0.301
649.70	0.302
650.15	0.305
650.59	0.307
651.04	0.311
651.48	0.308
651.93	0.314
652.38	0.314
652.82	0.318
653.27	0.318
653.72	0.321
654.16	0.323
654.61	0.323
655.06	0.327
655.50	0.325
655.95	0.326
656.39	0.329
656.84	0.331
657.29	0.331
657.73	0.333
658.18	0.335
658.62	0.335
659.07	0.340
659.52	0.339
659.96	0.339
660.41	0.338
660.85	0.339
661.30	0.340
661.74	0.343
662.19	0.343
662.64	0.341
663.08	0.341
663.53	0.342
663.97	0.341
664.42	0.341
664.86	0.339
665.31	0.342
665.75	0.340
666.20	0.340
666.65	0.339
667.09	0.335
667.54	0.336
667.98	0.335
668.43	0.331
668.87	0.330
669.32	0.330
669.76	0.326
670.21	0.321
670.65	0.317
671.10	0.314
671.54	0.311
671.99	0.309
672.43	0.306
672.88	0.302
673.32	0.294
673.77	0.291
674.21	0.285
674.66	0.282
675.10	0.278
675.55	0.271
675.99	0.266
676.44	0.262
676.88	0.254
677.33	0.248
677.77	0.241
678.22	0.237
678.66	0.231
679.11	0.222
679.55	0.216
679.99	0.212
680.44	0.206
680.88	0.200
681.33	0.194
681.77	0.190
682.22	0.182
682.66	0.176
683.11	0.172
683.55	0.166
683.99	0.159
684.44	0.153
684.88	0.151
685.33	0.143
685.77	0.137
686.21	0.136
686.66	0.127
687.10	0.123
687.55	0.121
687.99	0.119
688.44	0.112
688.88	0.109
689.32	0.105
689.77	0.101
690.21	0.096
690.65	0.094
691.10	0.087
691.54	0.085
691.99	0.083
692.43	0.080
692.87	0.077
693.32	0.076
693.76	0.072
694.20	0.069
694.65	0.069
695.09	0.066
695.53	0.063
695.98	0.062
696.42	0.059
696.86	0.058
697.31	0.057
697.75	0.055
698.19	0.053
698.64	0.052
699.08	0.051
699.52	0.048
699.97	0.049
700.41	0.048
700.85	0.046
701.30	0.045
701.74	0.040
702.18	0.043
702.63	0.040
703.07	0.042
703.51	0.040
703.96	0.038
704.40	0.039
704.84	0.038
705.28	0.038
705.73	0.033
706.17	0.034
706.61	0.035
707.06	0.035
707.50	0.035
707.94	0.034
708.38	0.031
708.83	0.034
709.27	0.031
709.71	0.032
710.15	0.029
710.60	0.031
711.04	0.030
711.48	0.030
711.92	0.031
712.37	0.030
712.81	0.030
713.25	0.028
713.69	0.029
714.13	0.029
714.58	0.029
715.02	0.027
715.46	0.027
715.90	0.026
716.35	0.026
716.79	0.029
717.23	0.027
717.67	0.026
718.11	0.026
718.56	0.027
719.00	0.025
719.44	0.027
719.88	0.030
720.32	0.027
720.76	0.024
721.21	0.027
721.65	0.028
722.09	0.028
722.53	0.028
722.97	0.027
723.41	0.027
723.86	0.028
724.30	0.026
724.74	0.027
725.18	0.030
725.62	0.025
726.06	0.027
726.50	0.026
726.95	0.028
727.39	0.029
727.83	0.028
728.27	0.027
728.71	0.026
729.15	0.028
729.59	0.031
730.03	0.030
730.48	0.028
730.92	0.028
731.36	0.027
731.80	0.030
732.24	0.029
732.68	0.028
733.12	0.030
733.56	0.030
734.00	0.032
734.44	0.031
734.89	0.029
735.33	0.029
735.77	0.030
736.21	0.031
736.65	0.033
737.09	0.029
737.53	0.029
737.97	0.032
738.41	0.029
738.85	0.030
739.29	0.029
739.73	0.030
740.17	0.031
740.61	0.034
741.05	0.032
741.49	0.030
741.93	0.031
742.37	0.033
742.81	0.032
743.26	0.030
743.70	0.032
744.14	0.030
744.58	0.030
745.02	0.032
745.46	0.030
745.90	0.031
746.34	0.030
746.78	0.032
747.22	0.031
747.66	0.029
748.10	0.031
748.54	0.031
748.98	0.029
749.42	0.031
749.86	0.032
750.29	0.033
750.73	0.031
751.17	0.029
751.61	0.031
752.05	0.031
752.49	0.030
752.93	0.032
753.37	0.030
753.81	0.032
754.25	0.030
754.69	0.030
755.13	0.031
755.57	0.030
756.01	0.031
756.45	0.029
756.89	0.030
757.33	0.033
757.77	0.029
758.21	0.032
758.64	0.031
759.08	0.030
759.52	0.031
759.96	0.031
760.40	0.031
760.84	0.029
761.28	0.032
761.72	0.030
762.16	0.029
762.60	0.027
763.03	0.030
763.47	0.030
763.91	0.027
764.35	0.028
764.79	0.033
765.23	0.030
765.67	0.029
766.11	0.031
766.54	0.031
766.98	0.028
767.42	0.028
767.86	0.032
768.30	0.034
768.74	0.032
769.17	0.030
769.61	0.033
770.05	0.028
770.49	0.028
770.93	0.030
771.37	0.029
771.80	0.032
772.24	0.032
772.68	0.029
773.12	0.031
773.56	0.031
774.00	0.030
774.43	0.028
774.87	0.029
775.31	0.033
775.75	0.031
776.19	0.031
776.62	0.031
777.06	0.026
777.50	0.029
777.94	0.029
778.37	0.028
778.81	0.033
779.25	0.034
779.69	0.029
780.13	0.031
780.56	0.030
781.00	0.032
781.44	0.032
781.88	0.031
782.31	0.030
782.75	0.031
783.19	0.033
783.63	0.032
784.06	0.029
784.50	0.031
784.94	0.031
785.37	0.029
785.81	0.029
786.25	0.030
786.69	0.031
787.12	0.030
787.56	0.033
788.00	0.025
788.43	0.027
788.87	0.030
789.31	0.031
789.75	0.030
790.18	0.028
790.62	0.031
791.06	0.031
791.49	0.031
791.93	0.029
792.37	0.024
792.80	0.029
793.24	0.030
793.68	0.031
794.11	0.032
794.55	0.029
794.99	0.031
795.42	0.030
795.86	0.029
796.30	0.030
796.73	0.031
797.17	0.029
797.61	0.030
798.04	0.027
798.48	0.029
798.91	0.027
799.35	0.028
799.79	0.030
800.22	0.027
800.66	0.026
801.10	0.031
801.53	0.028
801.97	0.028
802.40	0.026
802.84	0.030
803.28	0.027
803.71	0.025
804.15	0.031
804.58	0.030
805.02	0.030
805.46	0.026
805.89	0.028
806.33	0.030
806.76	0.027
807.20	0.028
807.63	0.029
808.07	0.034
808.51	0.025
808.94	0.031
809.38	0.032
809.81	0.027
810.25	0.030
810.68	0.029
811.12	0.030
811.55	0.027
811.99	0.030
812.42	0.029
812.86	0.028
813.29	0.029
813.73	0.034
814.17	0.031
814.60	0.025
815.04	0.030
815.47	0.031
815.91	0.031
816.34	0.031
816.78	0.028
817.21	0.026
817.65	0.030
818.08	0.031
818.52	0.025
818.95	0.033
819.39	0.032
819.82	0.032
820.25	0.035
820.69	0.031
821.12	0.026
821.56	0.033
821.99	0.030
822.43	0.034
822.86	0.031
823.30	0.030
823.73	0.026
824.17	0.030
824.60	0.027
825.04	0.032
825.47	0.032
825.90	0.033
826.34	0.026
826.77	0.029
827.21	0.029
827.64	0.029
828.08	0.035
828.51	0.037
828.94	0.030
829.38	0.032
829.81	0.034
830.25	0.035
830.68	0.032
831.11	0.037
831.55	0.037
831.98	0.037
832.42	0.034
832.85	0.038
833.28	0.034
833.72	0.033
834.15	0.037
834.58	0.037
835.02	0.038
835.45	0.035
835.88	0.039
836.32	0.033
836.75	0.031
837.19	0.032
837.62	0.039
838.05	0.038
838.49	0.036
838.92	0.036
839.35	0.038
839.79	0.034
840.22	0.035
840.65	0.037
841.09	0.041
841.52	0.037
841.95	0.040
842.39	0.036
842.82	0.037
843.25	0.039
843.68	0.041
844.12	0.039
844.55	0.039
844.98	0.036
845.42	0.037
845.85	0.042
846.28	0.044
846.71	0.037
847.15	0.040
847.58	0.042
848.01	0.038
848.45	0.040
848.88	0.041
849.31	0.037
849.74	0.038
850.18	0.042
850.61	0.037
851.04	0.040
851.47	0.040
851.91	0.046
852.34	0.038
852.77	0.043
853.20	0.044
853.64	0.037
854.07	0.038
854.50	0.042
854.93	0.042
855.36	0.039
855.80	0.035
856.23	0.043
856.66	0.041
857.09	0.037
857.52	0.039
857.96	0.041
858.39	0.042
858.82	0.039
859.25	0.040
859.68	0.039
860.12	0.035
860.55	0.039
860.98	0.036
861.41	0.040
861.84	0.036
862.27	0.042
862.71	0.048
863.14	0.039
863.57	0.042
864.00	0.048
864.43	0.035
864.86	0.041
865.30	0.039
865.73	0.041
866.16	0.046
866.59	0.044
867.02	0.043
867.45	0.048
867.88	0.045
868.31	0.037
868.75	0.038
869.18	0.046
869.61	0.043
870.04	0.045
870.47	0.044
870.90	0.044
871.33	0.044
871.76	0.043
872.19	0.041
872.62	0.044
873.06	0.047
873.49	0.048
873.92	0.045
874.35	0.043
874.78	0.043
875.21	0.049
875.64	0.049
876.07	0.047
876.50	0.046
876.93	0.046
877.36	0.053
877.79	0.049
878.22	0.048
878.65	0.050
879.08	0.049
879.51	0.045
879.94	0.044
880.37	0.044
880.80	0.048
881.23	0.048
881.67	0.044
882.10	0.045
882.53	0.045
882.96	0.048
883.39	0.050
883.82	0.053
884.25	0.053
884.68	0.054
885.11	0.048
885.54	0.049
885.97	0.046
886.39	0.055
886.82	0.051
887.25	0.053
887.68	0.052
888.11	0.053
888.54	0.047
888.97	0.049
889.40	0.051
889.83	0.057
890.26	0.056
890.69	0.051
891.12	0.052
891.55	0.050
891.98	0.056
892.41	0.056
892.84	0.054
893.27	0.046
893.70	0.053
894.13	0.053
894.56	0.060
894.98	0.052
895.41	0.056
895.84	0.056
896.27	0.054
896.70	0.052
897.13	0.060
897.56	0.061
897.99	0.053
898.42	0.060
898.85	0.064
899.27	0.055
899.70	0.052
900.13	0.060
900.56	0.057
900.99	0.056
901.42	0.056
901.85	0.062
902.28	0.056
902.70	0.060
903.13	0.053
903.56	0.057
903.99	0.061
904.42	0.057
904.85	0.053
905.27	0.059
905.70	0.058
906.13	0.059
906.56	0.062
906.99	0.059
907.42	0.058
907.84	0.058
908.27	0.062
908.70	0.057
909.13	0.061
909.56	0.059
909.98	0.059
910.41	0.058
910.84	0.056
911.27	0.056
911.70	0.054
912.12	0.057
912.55	0.060
912.98	0.058
913.41	0.059
913.84	0.055
914.26	0.058
914.69	0.059
915.12	0.061
915.55	0.058
915.97	0.062
916.40	0.057
916.83	0.059
917.26	0.059
917.68	0.060
918.11	0.057
918.54	0.061
918.97	0.060
919.39	0.064
919.82	0.060
920.25	0.061
920.67	0.062
921.10	0.061
921.53	0.060
921.96	0.062
922.38	0.060
922.81	0.061
923.24	0.067
923.66	0.065
924.09	0.064
924.52	0.068
924.94	0.067
925.37	0.064
925.80	0.071
926.22	0.067
926.65	0.072
927.08	0.068
927.50	0.070
927.93	0.070
928.36	0.069
928.78	0.071
929.21	0.076
929.64	0.079
930.06	0.076
930.49	0.073
930.92	0.075
931.34	0.078
931.77	0.077
932.20	0.078
932.62	0.085
933.05	0.080
933.47	0.084
933.90	0.085
934.33	0.082
934.75	0.081
935.18	0.087
935.61	0.089
936.03	0.090
936.46	0.089
936.88	0.094
937.31	0.094
937.73	0.099
938.16	0.097
938.59	0.100
939.01	0.102
939.44	0.101
939.86	0.102
940.29	0.108
940.71	0.108
941.14	0.111
941.57	0.106
941.99	0.112
942.42	0.122
942.84	0.113
943.27	0.110
943.69	0.122
944.12	0.128
944.54	0.120
944.97	0.119
945.39	0.125
945.82	0.134
946.24	0.138
946.67	0.137
947.09	0.141
947.52	0.140
947.94	0.149
948.37	0.144
948.79	0.140
949.22	0.147
949.64	0.153
950.07	0.151
950.49	0.156
950.92	0.156
951.34	0.166
951.77	0.167
952.19	0.158
952.62	0.167
953.04	0.170
953.47	0.168
953.89	0.177
954.32	0.176
954.74	0.181
955.17	0.189
955.59	0.189
956.01	0.192
956.44	0.196
956.86	0.193
957.29	0.202
957.71	0.197
958.14	0.201
958.56	0.205
958.98	0.211
959.41	0.213
959.83	0.206
960.26	0.212
960.68	0.215
961.10	0.219
961.53	0.212
961.95	0.218
962.38	0.226
962.80	0.222
963.22	0.215
963.65	0.219
964.07	0.220
964.50	0.221
964.92	0.228
965.34	0.220
965.77	0.228
966.19	0.229
966.61	0.226
967.04	0.223
967.46	0.226
967.88	0.227
968.31	0.226
968.73	0.229
969.15	0.225
969.58	0.220
970.00	0.225
970.42	0.232
970.85	0.232
971.27	0.227
971.69	0.231
972.12	0.224
972.54	0.243
972.96	0.240
973.39	0.230
973.81	0.239
974.23	0.236
974.65	0.233
975.08	0.231
975.50	0.230
975.92	0.239
976.35	0.227
976.77	0.229
977.19	0.235
977.61	0.236
978.04	0.247
978.46	0.240
978.88	0.224
979.30	0.237
979.73	0.238
980.15	0.243
980.57	0.235
980.99	0.230
981.42	0.228
981.84	0.240
982.26	0.229
982.68	0.233
983.11	0.236
983.53	0.235
983.95	0.232
984.37	0.232
984.79	0.229
985.22	0.232
985.64	0.232
986.06	0.227
986.48	0.225
986.90	0.224
987.33	0.232
987.75	0.224
988.17	0.228
988.59	0.227
989.01	0.229
989.43	0.226
989.86	0.229
990.28	0.226
990.70	0.228
991.12	0.226
991.54	0.217
991.96	0.229
992.39	0.219
992.81	0.219
993.23	0.222
993.65	0.218
994.07	0.219
994.49	0.215
994.91	0.217
995.34	0.213
995.76	0.213
996.18	0.214
996.60	0.219
997.02	0.211
997.44	0.209
997.86	0.213
998.28	0.209
998.70	0.214
999.12	0.202
999.55	0.212
999.97	0.205
1000.39	0.202
1000.81	0.209
1001.23	0.203
1001.65	0.209
1002.07	0.199
1002.49	0.204
1002.91	0.205
1003.33	0.207
1003.75	0.203
1004.17	0.203
1004.59	0.206
1005.01	0.203
1005.43	0.198
1005.85	0.198
1006.28	0.196
1006.70	0.195
1007.12	0.197
1007.54	0.195
1007.96	0.189
1008.38	0.196
1008.80	0.193
1009.22	0.189
1009.64	0.184
1010.06	0.193
1010.48	0.196
1010.90	0.191
1011.32	0.176
1011.74	0.182
1012.16	0.173
1012.58	0.173
1013.00	0.172
1013.42	0.176
1013.84	0.176
1014.26	0.168
1014.67	0.179
1015.09	0.177
1015.51	0.170
1015.93	0.174
1016.35	0.169
1016.77	0.172
1017.19	0.167
1017.61	0.167
1018.03	0.180
1018.45	0.169
1018.87	0.164
1019.29	0.168
1019.71	0.160
1020.13	0.159
1020.55	0.155
1020.97	0.158
1021.38	0.154
1021.80	0.170
1022.22	0.160
1022.64	0.148
1023.06	0.150
1023.48	0.149
1023.90	0.166
1024.32	0.160
1024.74	0.151
1025.15	0.155
1025.57	0.141
1025.99	0.143
1026.41	0.147
1026.83	0.141
1027.25	0.156
1027.67	0.144
1028.08	0.145
1028.50	0.146
1028.92	0.140
1029.34	0.141
1029.76	0.135
1030.18	0.132
1030.60	0.137
1031.01	0.139
1031.43	0.137
1031.85	0.131
1032.27	0.132
1032.69	0.111
1033.10	0.122
1033.52	0.122
1033.94	0.137
1034.36	0.125
1034.78	0.121
1035.19	0.126
1035.61	0.121
1036.03	0.120
1036.45	0.127
1036.87	0.131
1037.28	0.122
1037.70	0.121
1038.12	0.112
1038.54	0.125
1038.95	0.115
1039.37	0.122
1039.79	0.112
1040.21	0.112
1040.62	0.121
1041.04	0.108
1041.46	0.108
1041.88	0.104
1042.29	0.098
1042.71	0.106
1043.13	0.075
1043.55	0.108
1043.96	0.107
1044.38	0.096
1044.80	0.092
1045.21	0.091
1045.63	0.107
1046.05	0.086
1046.47	0.110
1046.88	0.097
1047.30	0.111
1047.72	0.101
1048.13	0.097
1048.55	0.097
1048.97	0.117
1049.38	0.097
1049.80	0.092
1050.22	0.080
1050.63	0.101
1051.05	0.112
1051.47	0.079
1051.88	0.081
1052.30	0.064
1052.72	0.107
1053.13	0.094
1053.55	0.100
1053.97	0.130
1054.38	0.094
1054.80	0.112
1055.21	0.108
1055.63	0.110
1056.05	0.104
1056.46	0.150
1056.88	0.088
1057.29	0.106
1057.71	0.102
1058.13	0.114
1058.54	0.082
1058.96	0.094
1059.37	0.102
1059.79	0.094
1060.21	0.057
1060.62	0.095
1061.04	0.130
1061.45	0.082
1061.87	0.104
1062.28	0.102
1062.70	0.129
1063.12	0.114
1063.53	0.135
1063.95	0.090
1064.36	0.134
1064.78	0.118
1065.19	0.094
1065.61	0.112
1066.02	0.072
1066.44	0.057
1066.85	0.088
1067.27	0.148
1067.68	0.147
1068.10	0.088
1068.51	0.147
1068.93	0.109
1069.35	0.074
1069.76	0.090
1070.17	0.137
1070.59	0.098
1071.00	0.156
1071.42	0.111
1071.83	0.105
1072.25	0.186
1072.66	0.162
1073.08	0.206
1073.49	0.045
1073.91	0.199
1074.32	0.150
1074.74	0.254
1075.15	0.054
1075.57	0.123
1075.98	0.187
1076.40	0.121
1076.81	0.141
1077.22	0.143
1077.64	0.125
1078.05	0.071
1078.47	-0.064
1078.88	0.079
1079.30	0.078
1079.71	0.040
1080.12	0.161
1080.54	0.080
1080.95	0.229
1081.37	-0.026
1081.78	0.100
1082.19	0.077
1082.61	0.068
1083.02	0.366
1083.44	0.355
1083.85	0.163
1084.26	-0.140
1084.68	-0.078
1085.09	-0.022
1085.50	0.391
1085.92	0.558
1086.33	0.386
1086.74	0.217
1087.16	0.211
1087.57	0.111
1087.98	0.140
1088.40	0.184
1088.81	0.043
1089.22	0.141
1089.64	0.312
1090.05	0.135
1090.46	-0.161
1090.88	0.617
1091.29	-0.000
1091.70	0.249
1092.12	0.192
1092.53	0.348
1092.94	0.418
1093.36	0.085
1093.77	0.304
1094.18	0.321
1094.59	0.125
1095.01	0.073
1095.42	0.217
1095.83	0.119
1096.25	0.141
1096.66	0.763
1097.07	0.264
1097.48	0.240
1097.90	-0.020
1098.31	0.655
1098.72	0.173
1099.13	0.019
>>>>>End Processed Spectral Data<<<<<
