SpectraSuite Data File
++++++++++++++++++++++++++++++++++++
Date: Tue Jul 11 16:23:02 CEST 2017
User: IPCE
Dark Spectrum Present: Yes
Reference Spectrum Present: Yes
Number of Sampled Component Spectra: 1
Spectrometers: HR+C0708
Integration Time (usec): 1000 (HR+C0708)
Spectra Averaged: 10 (HR+C0708)
Boxcar Smoothing: 0 (HR+C0708)
Correct for Electrical Dark: No (HR+C0708)
Strobe/Lamp Enabled: No (HR+C0708)
Correct for Detector Non-linearity: No (HR+C0708)
Correct for Stray Light: No (HR+C0708)
Number of Pixels in Processed Spectrum: 2048
>>>>>Begin Processed Spectral Data<<<<<
188.76	-0.136
189.23	-0.185
189.70	-0.379
190.17	0.034
190.64	-0.309
191.12	0.191
191.59	0.131
192.06	1.000
192.53	0.221
193.01	0.254
193.48	-0.390
193.95	0.149
194.42	0.035
194.90	0.070
195.37	0.009
195.84	0.112
196.31	0.425
196.78	0.062
197.26	0.205
197.73	0.156
198.20	-0.012
198.67	0.221
199.14	0.073
199.62	0.007
200.09	0.895
200.56	0.321
201.03	0.214
201.50	0.199
201.97	0.257
202.45	0.403
202.92	0.425
203.39	0.220
203.86	0.349
204.33	0.299
204.80	0.290
205.28	0.370
205.75	0.369
206.22	0.277
206.69	0.430
207.16	0.142
207.63	0.161
208.11	0.421
208.58	0.257
209.05	0.370
209.52	0.395
209.99	0.318
210.46	0.297
210.93	0.194
211.41	0.147
211.88	0.263
212.35	0.364
212.82	0.284
213.29	0.242
213.76	0.223
214.23	0.299
214.70	0.278
215.18	0.227
215.65	0.333
216.12	0.309
216.59	0.213
217.06	0.412
217.53	0.285
218.00	0.423
218.47	0.389
218.94	0.249
219.41	0.374
219.89	0.371
220.36	0.398
220.83	0.465
221.30	0.333
221.77	0.319
222.24	0.537
222.71	0.513
223.18	0.467
223.65	0.355
224.12	0.360
224.59	0.480
225.06	0.520
225.54	0.557
226.01	0.642
226.48	0.689
226.95	0.577
227.42	0.664
227.89	0.711
228.36	0.816
228.83	0.814
229.30	0.852
229.77	0.974
230.24	1.009
230.71	1.055
231.18	1.102
231.65	1.181
232.12	1.209
232.59	1.220
233.06	1.173
233.53	1.328
234.00	1.460
234.47	1.405
234.94	1.510
235.41	1.526
235.88	1.638
236.35	1.567
236.82	1.628
237.29	1.654
237.76	1.748
238.23	1.748
238.70	1.881
239.17	1.840
239.64	1.852
240.11	2.001
240.58	1.903
241.05	2.034
241.52	2.043
241.99	2.072
242.46	1.928
242.93	2.041
243.40	2.016
243.87	2.143
244.34	2.134
244.81	2.102
245.28	2.076
245.75	2.172
246.22	2.171
246.69	2.105
247.16	2.175
247.63	2.229
248.10	2.182
248.57	2.080
249.04	2.138
249.51	2.329
249.98	2.136
250.45	2.183
250.92	2.076
251.39	2.123
251.85	1.949
252.32	1.878
252.79	1.769
253.26	1.702
253.73	1.651
254.20	1.516
254.67	1.451
255.14	1.385
255.61	1.330
256.08	1.288
256.55	1.231
257.02	1.178
257.49	1.130
257.95	1.089
258.42	1.050
258.89	1.015
259.36	0.986
259.83	0.963
260.30	0.932
260.77	0.916
261.24	0.889
261.71	0.865
262.17	0.849
262.64	0.831
263.11	0.810
263.58	0.797
264.05	0.779
264.52	0.761
264.99	0.751
265.46	0.736
265.92	0.723
266.39	0.712
266.86	0.699
267.33	0.686
267.80	0.679
268.27	0.664
268.74	0.656
269.20	0.641
269.67	0.639
270.14	0.629
270.61	0.616
271.08	0.608
271.55	0.600
272.01	0.595
272.48	0.585
272.95	0.577
273.42	0.575
273.89	0.565
274.36	0.558
274.82	0.551
275.29	0.549
275.76	0.538
276.23	0.540
276.70	0.536
277.16	0.531
277.63	0.525
278.10	0.519
278.57	0.518
279.04	0.513
279.50	0.510
279.97	0.508
280.44	0.504
280.91	0.500
281.38	0.498
281.84	0.496
282.31	0.496
282.78	0.494
283.25	0.491
283.72	0.493
284.18	0.488
284.65	0.486
285.12	0.483
285.59	0.485
286.05	0.485
286.52	0.484
286.99	0.482
287.46	0.482
287.92	0.481
288.39	0.481
288.86	0.481
289.33	0.480
289.79	0.476
290.26	0.477
290.73	0.475
291.20	0.469
291.66	0.468
292.13	0.465
292.60	0.461
293.07	0.456
293.53	0.452
294.00	0.448
294.47	0.442
294.93	0.440
295.40	0.428
295.87	0.427
296.34	0.418
296.80	0.411
297.27	0.406
297.74	0.398
298.20	0.391
298.67	0.387
299.14	0.378
299.60	0.371
300.07	0.363
300.54	0.355
301.01	0.352
301.47	0.343
301.94	0.337
302.41	0.332
302.87	0.324
303.34	0.316
303.81	0.311
304.27	0.305
304.74	0.300
305.21	0.297
305.67	0.288
306.14	0.283
306.61	0.279
307.07	0.272
307.54	0.268
308.01	0.263
308.47	0.262
308.94	0.256
309.40	0.254
309.87	0.250
310.34	0.245
310.80	0.244
311.27	0.239
311.74	0.238
312.20	0.231
312.67	0.235
313.13	0.234
313.60	0.224
314.07	0.226
314.53	0.221
315.00	0.225
315.47	0.220
315.93	0.217
316.40	0.220
316.86	0.217
317.33	0.213
317.80	0.213
318.26	0.210
318.73	0.208
319.19	0.207
319.66	0.206
320.13	0.206
320.59	0.201
321.06	0.202
321.52	0.201
321.99	0.202
322.45	0.198
322.92	0.195
323.39	0.195
323.85	0.194
324.32	0.195
324.78	0.194
325.25	0.189
325.71	0.187
326.18	0.185
326.64	0.185
327.11	0.184
327.58	0.185
328.04	0.186
328.51	0.181
328.97	0.182
329.44	0.182
329.90	0.179
330.37	0.177
330.83	0.175
331.30	0.174
331.76	0.172
332.23	0.170
332.69	0.166
333.16	0.168
333.62	0.165
334.09	0.162
334.56	0.164
335.02	0.160
335.49	0.155
335.95	0.156
336.42	0.155
336.88	0.153
337.35	0.152
337.81	0.150
338.28	0.149
338.74	0.152
339.20	0.147
339.67	0.151
340.13	0.146
340.60	0.148
341.06	0.142
341.53	0.143
341.99	0.142
342.46	0.140
342.92	0.140
343.39	0.136
343.85	0.135
344.32	0.136
344.78	0.135
345.25	0.135
345.71	0.135
346.17	0.136
346.64	0.134
347.10	0.135
347.57	0.132
348.03	0.129
348.50	0.129
348.96	0.128
349.43	0.132
349.89	0.127
350.35	0.129
350.82	0.125
351.28	0.128
351.75	0.126
352.21	0.126
352.67	0.122
353.14	0.123
353.60	0.119
354.07	0.117
354.53	0.118
355.00	0.120
355.46	0.115
355.92	0.113
356.39	0.115
356.85	0.110
357.31	0.113
357.78	0.113
358.24	0.108
358.71	0.110
359.17	0.104
359.63	0.105
360.10	0.104
360.56	0.106
361.03	0.101
361.49	0.100
361.95	0.097
362.42	0.095
362.88	0.094
363.34	0.093
363.81	0.095
364.27	0.089
364.73	0.090
365.20	0.088
365.66	0.087
366.12	0.084
366.59	0.084
367.05	0.083
367.51	0.081
367.98	0.080
368.44	0.082
368.90	0.078
369.37	0.080
369.83	0.078
370.29	0.080
370.76	0.080
371.22	0.078
371.68	0.079
372.15	0.076
372.61	0.077
373.07	0.075
373.54	0.078
374.00	0.076
374.46	0.076
374.92	0.073
375.39	0.076
375.85	0.077
376.31	0.074
376.78	0.073
377.24	0.073
377.70	0.074
378.16	0.072
378.63	0.071
379.09	0.071
379.55	0.072
380.01	0.073
380.48	0.071
380.94	0.072
381.40	0.072
381.87	0.069
382.33	0.071
382.79	0.070
383.25	0.071
383.72	0.072
384.18	0.072
384.64	0.069
385.10	0.070
385.56	0.069
386.03	0.069
386.49	0.070
386.95	0.066
387.41	0.069
387.88	0.071
388.34	0.069
388.80	0.066
389.26	0.067
389.72	0.069
390.19	0.067
390.65	0.067
391.11	0.068
391.57	0.069
392.04	0.068
392.50	0.066
392.96	0.067
393.42	0.065
393.88	0.068
394.34	0.065
394.81	0.067
395.27	0.064
395.73	0.064
396.19	0.067
396.65	0.069
397.12	0.067
397.58	0.061
398.04	0.066
398.50	0.066
398.96	0.065
399.42	0.063
399.89	0.063
400.35	0.061
400.81	0.066
401.27	0.066
401.73	0.064
402.19	0.064
402.65	0.063
403.12	0.064
403.58	0.063
404.04	0.062
404.50	0.061
404.96	0.062
405.42	0.061
405.88	0.060
406.34	0.061
406.81	0.061
407.27	0.059
407.73	0.061
408.19	0.057
408.65	0.058
409.11	0.059
409.57	0.060
410.03	0.061
410.49	0.057
410.96	0.058
411.42	0.061
411.88	0.058
412.34	0.058
412.80	0.057
413.26	0.059
413.72	0.058
414.18	0.059
414.64	0.056
415.10	0.055
415.56	0.057
416.02	0.055
416.48	0.054
416.95	0.054
417.41	0.054
417.87	0.053
418.33	0.054
418.79	0.055
419.25	0.057
419.71	0.054
420.17	0.053
420.63	0.055
421.09	0.055
421.55	0.055
422.01	0.052
422.47	0.054
422.93	0.054
423.39	0.053
423.85	0.052
424.31	0.052
424.77	0.053
425.23	0.053
425.69	0.054
426.15	0.054
426.61	0.054
427.07	0.054
427.53	0.055
427.99	0.054
428.45	0.055
428.91	0.054
429.37	0.052
429.83	0.053
430.29	0.054
430.75	0.053
431.21	0.050
431.67	0.053
432.13	0.050
432.59	0.052
433.05	0.050
433.51	0.055
433.97	0.054
434.43	0.051
434.89	0.050
435.35	0.054
435.81	0.049
436.27	0.051
436.73	0.051
437.19	0.052
437.65	0.049
438.11	0.051
438.57	0.051
439.03	0.049
439.48	0.051
439.94	0.048
440.40	0.049
440.86	0.053
441.32	0.051
441.78	0.054
442.24	0.047
442.70	0.051
443.16	0.049
443.62	0.048
444.08	0.050
444.54	0.052
444.99	0.050
445.45	0.051
445.91	0.051
446.37	0.050
446.83	0.051
447.29	0.050
447.75	0.051
448.21	0.050
448.67	0.050
449.12	0.046
449.58	0.047
450.04	0.046
450.50	0.047
450.96	0.048
451.42	0.047
451.88	0.052
452.34	0.048
452.79	0.048
453.25	0.048
453.71	0.048
454.17	0.047
454.63	0.051
455.09	0.050
455.55	0.048
456.00	0.046
456.46	0.047
456.92	0.049
457.38	0.050
457.84	0.048
458.30	0.052
458.75	0.048
459.21	0.047
459.67	0.050
460.13	0.050
460.59	0.051
461.04	0.048
461.50	0.047
461.96	0.048
462.42	0.049
462.88	0.047
463.33	0.049
463.79	0.049
464.25	0.047
464.71	0.049
465.17	0.049
465.62	0.049
466.08	0.048
466.54	0.048
467.00	0.049
467.46	0.049
467.91	0.050
468.37	0.051
468.83	0.051
469.29	0.049
469.74	0.049
470.20	0.050
470.66	0.049
471.12	0.050
471.57	0.050
472.03	0.050
472.49	0.050
472.95	0.048
473.40	0.050
473.86	0.049
474.32	0.048
474.78	0.048
475.23	0.050
475.69	0.050
476.15	0.052
476.60	0.050
477.06	0.048
477.52	0.048
477.98	0.050
478.43	0.050
478.89	0.051
479.35	0.048
479.80	0.048
480.26	0.048
480.72	0.049
481.18	0.050
481.63	0.049
482.09	0.049
482.55	0.050
483.00	0.049
483.46	0.051
483.92	0.050
484.37	0.051
484.83	0.052
485.29	0.050
485.74	0.051
486.20	0.050
486.66	0.050
487.11	0.050
487.57	0.052
488.03	0.050
488.48	0.050
488.94	0.052
489.40	0.049
489.85	0.048
490.31	0.048
490.77	0.051
491.22	0.047
491.68	0.049
492.13	0.052
492.59	0.051
493.05	0.049
493.50	0.050
493.96	0.049
494.42	0.049
494.87	0.051
495.33	0.052
495.78	0.048
496.24	0.050
496.70	0.051
497.15	0.051
497.61	0.050
498.06	0.050
498.52	0.050
498.98	0.052
499.43	0.047
499.89	0.050
500.34	0.049
500.80	0.049
501.25	0.048
501.71	0.050
502.17	0.050
502.62	0.049
503.08	0.048
503.53	0.050
503.99	0.051
504.44	0.050
504.90	0.048
505.36	0.049
505.81	0.047
506.27	0.047
506.72	0.049
507.18	0.049
507.63	0.049
508.09	0.049
508.54	0.048
509.00	0.051
509.45	0.049
509.91	0.049
510.36	0.050
510.82	0.050
511.27	0.048
511.73	0.049
512.19	0.046
512.64	0.050
513.10	0.048
513.55	0.049
514.01	0.049
514.46	0.049
514.92	0.048
515.37	0.048
515.83	0.048
516.28	0.050
516.73	0.046
517.19	0.047
517.64	0.047
518.10	0.049
518.55	0.048
519.01	0.047
519.46	0.047
519.92	0.049
520.37	0.050
520.83	0.050
521.28	0.049
521.74	0.046
522.19	0.048
522.65	0.049
523.10	0.048
523.55	0.048
524.01	0.049
524.46	0.048
524.92	0.048
525.37	0.049
525.83	0.050
526.28	0.049
526.73	0.049
527.19	0.049
527.64	0.053
528.10	0.049
528.55	0.051
529.01	0.048
529.46	0.051
529.91	0.050
530.37	0.051
530.82	0.051
531.28	0.051
531.73	0.050
532.18	0.050
532.64	0.051
533.09	0.050
533.54	0.048
534.00	0.048
534.45	0.052
534.91	0.048
535.36	0.052
535.81	0.049
536.27	0.051
536.72	0.049
537.17	0.052
537.63	0.051
538.08	0.054
538.54	0.053
538.99	0.052
539.44	0.053
539.90	0.055
540.35	0.052
540.80	0.054
541.26	0.053
541.71	0.054
542.16	0.053
542.62	0.054
543.07	0.054
543.52	0.053
543.98	0.056
544.43	0.056
544.88	0.054
545.34	0.056
545.79	0.056
546.24	0.059
546.69	0.057
547.15	0.056
547.60	0.060
548.05	0.056
548.51	0.058
548.96	0.058
549.41	0.059
549.86	0.061
550.32	0.060
550.77	0.060
551.22	0.063
551.68	0.060
552.13	0.059
552.58	0.061
553.03	0.062
553.49	0.062
553.94	0.062
554.39	0.063
554.84	0.067
555.30	0.063
555.75	0.064
556.20	0.066
556.65	0.065
557.11	0.067
557.56	0.067
558.01	0.066
558.46	0.067
558.92	0.067
559.37	0.068
559.82	0.070
560.27	0.069
560.72	0.069
561.18	0.070
561.63	0.071
562.08	0.071
562.53	0.071
562.99	0.072
563.44	0.071
563.89	0.073
564.34	0.074
564.79	0.074
565.25	0.078
565.70	0.077
566.15	0.076
566.60	0.077
567.05	0.079
567.50	0.079
567.96	0.080
568.41	0.080
568.86	0.080
569.31	0.081
569.76	0.081
570.21	0.081
570.67	0.081
571.12	0.083
571.57	0.084
572.02	0.085
572.47	0.086
572.92	0.086
573.37	0.084
573.83	0.088
574.28	0.088
574.73	0.089
575.18	0.089
575.63	0.092
576.08	0.090
576.53	0.091
576.98	0.093
577.44	0.094
577.89	0.093
578.34	0.095
578.79	0.099
579.24	0.097
579.69	0.099
580.14	0.100
580.59	0.100
581.04	0.102
581.49	0.104
581.95	0.104
582.40	0.103
582.85	0.104
583.30	0.105
583.75	0.109
584.20	0.110
584.65	0.108
585.10	0.111
585.55	0.113
586.00	0.115
586.45	0.116
586.90	0.116
587.35	0.116
587.80	0.119
588.25	0.121
588.71	0.121
589.16	0.124
589.61	0.125
590.06	0.128
590.51	0.129
590.96	0.128
591.41	0.132
591.86	0.133
592.31	0.134
592.76	0.136
593.21	0.137
593.66	0.139
594.11	0.141
594.56	0.144
595.01	0.145
595.46	0.146
595.91	0.144
596.36	0.149
596.81	0.150
597.26	0.151
597.71	0.154
598.16	0.155
598.61	0.156
599.06	0.158
599.51	0.159
599.96	0.161
600.41	0.163
600.86	0.166
601.31	0.165
601.76	0.168
602.21	0.167
602.65	0.170
603.10	0.172
603.55	0.173
604.00	0.177
604.45	0.177
604.90	0.178
605.35	0.180
605.80	0.178
606.25	0.181
606.70	0.185
607.15	0.185
607.60	0.185
608.05	0.187
608.50	0.188
608.95	0.190
609.39	0.189
609.84	0.192
610.29	0.191
610.74	0.195
611.19	0.193
611.64	0.196
612.09	0.198
612.54	0.200
612.99	0.200
613.44	0.198
613.88	0.201
614.33	0.199
614.78	0.201
615.23	0.202
615.68	0.202
616.13	0.203
616.58	0.203
617.03	0.203
617.47	0.206
617.92	0.207
618.37	0.208
618.82	0.206
619.27	0.206
619.72	0.209
620.17	0.208
620.61	0.208
621.06	0.211
621.51	0.212
621.96	0.211
622.41	0.214
622.86	0.211
623.30	0.213
623.75	0.213
624.20	0.215
624.65	0.216
625.10	0.215
625.54	0.217
625.99	0.220
626.44	0.218
626.89	0.219
627.34	0.219
627.78	0.221
628.23	0.225
628.68	0.225
629.13	0.225
629.58	0.225
630.02	0.228
630.47	0.229
630.92	0.231
631.37	0.232
631.81	0.233
632.26	0.233
632.71	0.236
633.16	0.238
633.61	0.239
634.05	0.241
634.50	0.241
634.95	0.244
635.40	0.242
635.84	0.249
636.29	0.251
636.74	0.250
637.18	0.254
637.63	0.255
638.08	0.255
638.53	0.258
638.97	0.261
639.42	0.264
639.87	0.268
640.32	0.269
640.76	0.269
641.21	0.274
641.66	0.277
642.10	0.280
642.55	0.279
643.00	0.281
643.44	0.284
643.89	0.289
644.34	0.290
644.79	0.291
645.23	0.297
645.68	0.299
646.13	0.303
646.57	0.302
647.02	0.306
647.47	0.306
647.91	0.310
648.36	0.315
648.81	0.317
649.25	0.321
649.70	0.321
650.15	0.322
650.59	0.324
651.04	0.328
651.48	0.328
651.93	0.333
652.38	0.333
652.82	0.334
653.27	0.337
653.72	0.340
654.16	0.342
654.61	0.343
655.06	0.345
655.50	0.348
655.95	0.346
656.39	0.348
656.84	0.351
657.29	0.352
657.73	0.354
658.18	0.357
658.62	0.357
659.07	0.361
659.52	0.361
659.96	0.360
660.41	0.361
660.85	0.358
661.30	0.362
661.74	0.364
662.19	0.365
662.64	0.362
663.08	0.364
663.53	0.364
663.97	0.364
664.42	0.363
664.86	0.363
665.31	0.363
665.75	0.363
666.20	0.360
666.65	0.359
667.09	0.359
667.54	0.356
667.98	0.356
668.43	0.355
668.87	0.352
669.32	0.351
669.76	0.347
670.21	0.345
670.65	0.340
671.10	0.338
671.54	0.332
671.99	0.330
672.43	0.325
672.88	0.322
673.32	0.316
673.77	0.309
674.21	0.306
674.66	0.300
675.10	0.294
675.55	0.291
675.99	0.287
676.44	0.281
676.88	0.273
677.33	0.264
677.77	0.258
678.22	0.254
678.66	0.247
679.11	0.240
679.55	0.233
679.99	0.228
680.44	0.221
680.88	0.214
681.33	0.211
681.77	0.202
682.22	0.195
682.66	0.188
683.11	0.181
683.55	0.175
683.99	0.171
684.44	0.163
684.88	0.159
685.33	0.153
685.77	0.147
686.21	0.142
686.66	0.137
687.10	0.132
687.55	0.127
687.99	0.126
688.44	0.119
688.88	0.114
689.32	0.110
689.77	0.105
690.21	0.103
690.65	0.096
691.10	0.093
691.54	0.091
691.99	0.088
692.43	0.084
692.87	0.082
693.32	0.078
693.76	0.077
694.20	0.072
694.65	0.071
695.09	0.069
695.53	0.065
695.98	0.063
696.42	0.061
696.86	0.062
697.31	0.060
697.75	0.056
698.19	0.053
698.64	0.054
699.08	0.052
699.52	0.049
699.97	0.051
700.41	0.049
700.85	0.047
701.30	0.044
701.74	0.041
702.18	0.044
702.63	0.042
703.07	0.042
703.51	0.040
703.96	0.039
704.40	0.038
704.84	0.037
705.28	0.038
705.73	0.035
706.17	0.034
706.61	0.034
707.06	0.035
707.50	0.034
707.94	0.033
708.38	0.032
708.83	0.033
709.27	0.030
709.71	0.033
710.15	0.029
710.60	0.031
711.04	0.030
711.48	0.028
711.92	0.030
712.37	0.030
712.81	0.029
713.25	0.028
713.69	0.028
714.13	0.026
714.58	0.030
715.02	0.028
715.46	0.027
715.90	0.026
716.35	0.025
716.79	0.027
717.23	0.025
717.67	0.026
718.11	0.023
718.56	0.026
719.00	0.026
719.44	0.026
719.88	0.029
720.32	0.027
720.76	0.026
721.21	0.028
721.65	0.029
722.09	0.027
722.53	0.029
722.97	0.028
723.41	0.028
723.86	0.025
724.30	0.026
724.74	0.026
725.18	0.027
725.62	0.025
726.06	0.026
726.50	0.025
726.95	0.026
727.39	0.029
727.83	0.029
728.27	0.027
728.71	0.024
729.15	0.028
729.59	0.027
730.03	0.026
730.48	0.028
730.92	0.027
731.36	0.030
731.80	0.027
732.24	0.027
732.68	0.030
733.12	0.031
733.56	0.027
734.00	0.029
734.44	0.030
734.89	0.027
735.33	0.031
735.77	0.032
736.21	0.029
736.65	0.032
737.09	0.030
737.53	0.027
737.97	0.033
738.41	0.030
738.85	0.031
739.29	0.030
739.73	0.032
740.17	0.032
740.61	0.031
741.05	0.030
741.49	0.029
741.93	0.031
742.37	0.030
742.81	0.030
743.26	0.029
743.70	0.032
744.14	0.030
744.58	0.031
745.02	0.033
745.46	0.028
745.90	0.030
746.34	0.030
746.78	0.031
747.22	0.031
747.66	0.030
748.10	0.029
748.54	0.029
748.98	0.028
749.42	0.030
749.86	0.031
750.29	0.033
750.73	0.030
751.17	0.028
751.61	0.032
752.05	0.031
752.49	0.029
752.93	0.029
753.37	0.032
753.81	0.031
754.25	0.029
754.69	0.032
755.13	0.030
755.57	0.029
756.01	0.029
756.45	0.027
756.89	0.032
757.33	0.031
757.77	0.028
758.21	0.032
758.64	0.032
759.08	0.032
759.52	0.030
759.96	0.029
760.40	0.028
760.84	0.028
761.28	0.029
761.72	0.029
762.16	0.030
762.60	0.028
763.03	0.029
763.47	0.030
763.91	0.026
764.35	0.028
764.79	0.030
765.23	0.029
765.67	0.029
766.11	0.030
766.54	0.031
766.98	0.030
767.42	0.028
767.86	0.030
768.30	0.033
768.74	0.029
769.17	0.031
769.61	0.030
770.05	0.027
770.49	0.029
770.93	0.030
771.37	0.026
771.80	0.033
772.24	0.028
772.68	0.029
773.12	0.029
773.56	0.029
774.00	0.032
774.43	0.030
774.87	0.026
775.31	0.029
775.75	0.031
776.19	0.030
776.62	0.030
777.06	0.027
777.50	0.029
777.94	0.032
778.37	0.028
778.81	0.032
779.25	0.032
779.69	0.026
780.13	0.030
780.56	0.028
781.00	0.031
781.44	0.031
781.88	0.029
782.31	0.032
782.75	0.030
783.19	0.031
783.63	0.030
784.06	0.028
784.50	0.029
784.94	0.033
785.37	0.032
785.81	0.029
786.25	0.030
786.69	0.030
787.12	0.029
787.56	0.030
788.00	0.026
788.43	0.025
788.87	0.030
789.31	0.032
789.75	0.030
790.18	0.026
790.62	0.029
791.06	0.032
791.49	0.030
791.93	0.028
792.37	0.025
792.80	0.030
793.24	0.028
793.68	0.028
794.11	0.032
794.55	0.027
794.99	0.029
795.42	0.027
795.86	0.029
796.30	0.028
796.73	0.029
797.17	0.030
797.61	0.025
798.04	0.025
798.48	0.028
798.91	0.028
799.35	0.029
799.79	0.034
800.22	0.027
800.66	0.029
801.10	0.029
801.53	0.031
801.97	0.029
802.40	0.030
802.84	0.028
803.28	0.028
803.71	0.026
804.15	0.028
804.58	0.030
805.02	0.026
805.46	0.027
805.89	0.031
806.33	0.028
806.76	0.025
807.20	0.029
807.63	0.028
808.07	0.029
808.51	0.024
808.94	0.031
809.38	0.032
809.81	0.025
810.25	0.030
810.68	0.032
811.12	0.027
811.55	0.028
811.99	0.028
812.42	0.025
812.86	0.028
813.29	0.029
813.73	0.030
814.17	0.025
814.60	0.027
815.04	0.029
815.47	0.027
815.91	0.032
816.34	0.030
816.78	0.029
817.21	0.026
817.65	0.029
818.08	0.030
818.52	0.026
818.95	0.032
819.39	0.032
819.82	0.029
820.25	0.034
820.69	0.027
821.12	0.027
821.56	0.030
821.99	0.026
822.43	0.029
822.86	0.025
823.30	0.030
823.73	0.023
824.17	0.029
824.60	0.032
825.04	0.031
825.47	0.029
825.90	0.036
826.34	0.031
826.77	0.032
827.21	0.029
827.64	0.029
828.08	0.037
828.51	0.035
828.94	0.028
829.38	0.032
829.81	0.029
830.25	0.027
830.68	0.037
831.11	0.034
831.55	0.035
831.98	0.033
832.42	0.037
832.85	0.032
833.28	0.034
833.72	0.035
834.15	0.037
834.58	0.037
835.02	0.033
835.45	0.034
835.88	0.033
836.32	0.038
836.75	0.038
837.19	0.034
837.62	0.037
838.05	0.041
838.49	0.035
838.92	0.032
839.35	0.033
839.79	0.032
840.22	0.038
840.65	0.037
841.09	0.037
841.52	0.038
841.95	0.038
842.39	0.036
842.82	0.039
843.25	0.038
843.68	0.035
844.12	0.032
844.55	0.033
844.98	0.036
845.42	0.029
845.85	0.036
846.28	0.035
846.71	0.035
847.15	0.041
847.58	0.039
848.01	0.036
848.45	0.040
848.88	0.041
849.31	0.034
849.74	0.041
850.18	0.034
850.61	0.033
851.04	0.039
851.47	0.043
851.91	0.042
852.34	0.038
852.77	0.041
853.20	0.042
853.64	0.038
854.07	0.040
854.50	0.044
854.93	0.043
855.36	0.038
855.80	0.037
856.23	0.042
856.66	0.041
857.09	0.039
857.52	0.038
857.96	0.040
858.39	0.042
858.82	0.038
859.25	0.042
859.68	0.043
860.12	0.038
860.55	0.042
860.98	0.039
861.41	0.033
861.84	0.040
862.27	0.043
862.71	0.044
863.14	0.042
863.57	0.043
864.00	0.047
864.43	0.035
864.86	0.039
865.30	0.040
865.73	0.042
866.16	0.047
866.59	0.040
867.02	0.038
867.45	0.045
867.88	0.042
868.31	0.038
868.75	0.038
869.18	0.046
869.61	0.043
870.04	0.041
870.47	0.044
870.90	0.040
871.33	0.036
871.76	0.045
872.19	0.043
872.62	0.046
873.06	0.051
873.49	0.049
873.92	0.047
874.35	0.040
874.78	0.043
875.21	0.042
875.64	0.047
876.07	0.045
876.50	0.048
876.93	0.048
877.36	0.050
877.79	0.048
878.22	0.046
878.65	0.054
879.08	0.048
879.51	0.048
879.94	0.041
880.37	0.048
880.80	0.047
881.23	0.044
881.67	0.046
882.10	0.036
882.53	0.043
882.96	0.048
883.39	0.046
883.82	0.052
884.25	0.057
884.68	0.050
885.11	0.049
885.54	0.057
885.97	0.048
886.39	0.050
886.82	0.050
887.25	0.054
887.68	0.049
888.11	0.052
888.54	0.046
888.97	0.049
889.40	0.052
889.83	0.053
890.26	0.055
890.69	0.047
891.12	0.057
891.55	0.052
891.98	0.051
892.41	0.052
892.84	0.054
893.27	0.046
893.70	0.053
894.13	0.056
894.56	0.056
894.98	0.053
895.41	0.050
895.84	0.051
896.27	0.053
896.70	0.054
897.13	0.059
897.56	0.059
897.99	0.053
898.42	0.057
898.85	0.062
899.27	0.054
899.70	0.056
900.13	0.060
900.56	0.053
900.99	0.058
901.42	0.055
901.85	0.059
902.28	0.057
902.70	0.061
903.13	0.056
903.56	0.056
903.99	0.054
904.42	0.056
904.85	0.054
905.27	0.058
905.70	0.060
906.13	0.061
906.56	0.060
906.99	0.059
907.42	0.059
907.84	0.056
908.27	0.059
908.70	0.058
909.13	0.062
909.56	0.053
909.98	0.058
910.41	0.061
910.84	0.054
911.27	0.059
911.70	0.053
912.12	0.060
912.55	0.058
912.98	0.054
913.41	0.058
913.84	0.056
914.26	0.058
914.69	0.058
915.12	0.058
915.55	0.059
915.97	0.059
916.40	0.057
916.83	0.057
917.26	0.057
917.68	0.060
918.11	0.056
918.54	0.059
918.97	0.059
919.39	0.062
919.82	0.064
920.25	0.060
920.67	0.058
921.10	0.062
921.53	0.061
921.96	0.063
922.38	0.058
922.81	0.064
923.24	0.068
923.66	0.064
924.09	0.058
924.52	0.066
924.94	0.066
925.37	0.070
925.80	0.067
926.22	0.067
926.65	0.069
927.08	0.066
927.50	0.067
927.93	0.074
928.36	0.070
928.78	0.072
929.21	0.078
929.64	0.079
930.06	0.072
930.49	0.076
930.92	0.076
931.34	0.078
931.77	0.077
932.20	0.078
932.62	0.081
933.05	0.084
933.47	0.083
933.90	0.089
934.33	0.082
934.75	0.081
935.18	0.088
935.61	0.092
936.03	0.083
936.46	0.092
936.88	0.096
937.31	0.096
937.73	0.098
938.16	0.093
938.59	0.103
939.01	0.101
939.44	0.101
939.86	0.098
940.29	0.107
940.71	0.106
941.14	0.110
941.57	0.103
941.99	0.117
942.42	0.112
942.84	0.111
943.27	0.106
943.69	0.119
944.12	0.124
944.54	0.132
944.97	0.115
945.39	0.116
945.82	0.134
946.24	0.131
946.67	0.131
947.09	0.139
947.52	0.134
947.94	0.150
948.37	0.143
948.79	0.139
949.22	0.152
949.64	0.149
950.07	0.150
950.49	0.151
950.92	0.157
951.34	0.162
951.77	0.159
952.19	0.161
952.62	0.163
953.04	0.175
953.47	0.168
953.89	0.175
954.32	0.185
954.74	0.176
955.17	0.189
955.59	0.183
956.01	0.190
956.44	0.192
956.86	0.190
957.29	0.199
957.71	0.202
958.14	0.195
958.56	0.208
958.98	0.208
959.41	0.213
959.83	0.210
960.26	0.213
960.68	0.214
961.10	0.213
961.53	0.219
961.95	0.216
962.38	0.218
962.80	0.214
963.22	0.219
963.65	0.219
964.07	0.222
964.50	0.220
964.92	0.216
965.34	0.222
965.77	0.231
966.19	0.222
966.61	0.225
967.04	0.222
967.46	0.231
967.88	0.228
968.31	0.228
968.73	0.228
969.15	0.237
969.58	0.223
970.00	0.230
970.42	0.229
970.85	0.227
971.27	0.229
971.69	0.231
972.12	0.231
972.54	0.236
972.96	0.234
973.39	0.228
973.81	0.232
974.23	0.237
974.65	0.238
975.08	0.231
975.50	0.231
975.92	0.235
976.35	0.231
976.77	0.235
977.19	0.233
977.61	0.236
978.04	0.237
978.46	0.239
978.88	0.235
979.30	0.228
979.73	0.235
980.15	0.230
980.57	0.231
980.99	0.233
981.42	0.240
981.84	0.242
982.26	0.232
982.68	0.233
983.11	0.233
983.53	0.242
983.95	0.233
984.37	0.240
984.79	0.228
985.22	0.231
985.64	0.232
986.06	0.225
986.48	0.231
986.90	0.223
987.33	0.228
987.75	0.223
988.17	0.226
988.59	0.224
989.01	0.228
989.43	0.222
989.86	0.220
990.28	0.226
990.70	0.225
991.12	0.223
991.54	0.222
991.96	0.217
992.39	0.228
992.81	0.218
993.23	0.207
993.65	0.216
994.07	0.217
994.49	0.207
994.91	0.221
995.34	0.209
995.76	0.216
996.18	0.210
996.60	0.211
997.02	0.217
997.44	0.208
997.86	0.211
998.28	0.212
998.70	0.209
999.12	0.206
999.55	0.215
999.97	0.200
1000.39	0.198
1000.81	0.201
1001.23	0.198
1001.65	0.201
1002.07	0.208
1002.49	0.202
1002.91	0.211
1003.33	0.211
1003.75	0.199
1004.17	0.193
1004.59	0.195
1005.01	0.196
1005.43	0.191
1005.85	0.191
1006.28	0.202
1006.70	0.197
1007.12	0.191
1007.54	0.190
1007.96	0.187
1008.38	0.183
1008.80	0.192
1009.22	0.187
1009.64	0.181
1010.06	0.188
1010.48	0.188
1010.90	0.179
1011.32	0.178
1011.74	0.172
1012.16	0.181
1012.58	0.180
1013.00	0.175
1013.42	0.187
1013.84	0.182
1014.26	0.170
1014.67	0.181
1015.09	0.170
1015.51	0.185
1015.93	0.186
1016.35	0.174
1016.77	0.174
1017.19	0.169
1017.61	0.170
1018.03	0.177
1018.45	0.168
1018.87	0.155
1019.29	0.164
1019.71	0.170
1020.13	0.166
1020.55	0.171
1020.97	0.156
1021.38	0.163
1021.80	0.171
1022.22	0.147
1022.64	0.148
1023.06	0.131
1023.48	0.156
1023.90	0.149
1024.32	0.150
1024.74	0.148
1025.15	0.164
1025.57	0.140
1025.99	0.152
1026.41	0.152
1026.83	0.141
1027.25	0.162
1027.67	0.152
1028.08	0.140
1028.50	0.141
1028.92	0.136
1029.34	0.144
1029.76	0.139
1030.18	0.128
1030.60	0.129
1031.01	0.139
1031.43	0.118
1031.85	0.135
1032.27	0.136
1032.69	0.129
1033.10	0.139
1033.52	0.134
1033.94	0.126
1034.36	0.151
1034.78	0.126
1035.19	0.123
1035.61	0.136
1036.03	0.123
1036.45	0.137
1036.87	0.129
1037.28	0.107
1037.70	0.112
1038.12	0.113
1038.54	0.104
1038.95	0.115
1039.37	0.137
1039.79	0.107
1040.21	0.111
1040.62	0.108
1041.04	0.118
1041.46	0.118
1041.88	0.105
1042.29	0.110
1042.71	0.118
1043.13	0.086
1043.55	0.118
1043.96	0.103
1044.38	0.106
1044.80	0.098
1045.21	0.110
1045.63	0.105
1046.05	0.103
1046.47	0.095
1046.88	0.112
1047.30	0.112
1047.72	0.116
1048.13	0.091
1048.55	0.083
1048.97	0.112
1049.38	0.093
1049.80	0.103
1050.22	0.101
1050.63	0.103
1051.05	0.114
1051.47	0.109
1051.88	0.083
1052.30	0.068
1052.72	0.127
1053.13	0.087
1053.55	0.102
1053.97	0.147
1054.38	0.077
1054.80	0.111
1055.21	0.109
1055.63	0.094
1056.05	0.099
1056.46	0.116
1056.88	0.104
1057.29	0.101
1057.71	0.090
1058.13	0.098
1058.54	0.088
1058.96	0.108
1059.37	0.133
1059.79	0.101
1060.21	0.065
1060.62	0.122
1061.04	0.135
1061.45	0.063
1061.87	0.095
1062.28	0.088
1062.70	0.105
1063.12	0.088
1063.53	0.118
1063.95	0.141
1064.36	0.094
1064.78	0.074
1065.19	0.115
1065.61	0.133
1066.02	0.070
1066.44	0.093
1066.85	0.102
1067.27	0.123
1067.68	0.171
1068.10	0.126
1068.51	0.152
1068.93	0.136
1069.35	0.080
1069.76	0.160
1070.17	0.090
1070.59	0.031
1071.00	0.085
1071.42	0.128
1071.83	0.132
1072.25	0.096
1072.66	0.136
1073.08	0.162
1073.49	0.081
1073.91	0.105
1074.32	0.268
1074.74	0.314
1075.15	0.157
1075.57	0.207
1075.98	0.158
1076.40	0.033
1076.81	0.107
1077.22	0.286
1077.64	0.342
1078.05	0.116
1078.47	-0.022
1078.88	0.264
1079.30	0.126
1079.71	0.085
1080.12	0.073
1080.54	0.128
1080.95	0.335
1081.37	0.124
1081.78	0.044
1082.19	0.324
1082.61	0.187
1083.02	-0.013
1083.44	0.271
1083.85	0.190
1084.26	-0.042
1084.68	0.530
1085.09	0.029
1085.50	0.069
1085.92	0.819
1086.33	0.120
1086.74	0.203
1087.16	0.166
1087.57	0.213
1087.98	0.264
1088.40	0.207
1088.81	0.104
1089.22	0.373
1089.64	0.285
1090.05	-0.218
1090.46	-0.066
1090.88	0.542
1091.29	-0.000
1091.70	0.398
1092.12	0.039
1092.53	0.189
1092.94	0.168
1093.36	-0.136
1093.77	0.583
1094.18	0.169
1094.59	0.055
1095.01	0.293
1095.42	0.285
1095.83	0.095
1096.25	0.282
1096.66	0.317
1097.07	0.491
1097.48	0.349
1097.90	-0.311
1098.31	0.891
1098.72	-0.123
1099.13	-0.160
>>>>>End Processed Spectral Data<<<<<
