SpectraSuite Data File
++++++++++++++++++++++++++++++++++++
Date: Tue Jul 11 15:42:02 CEST 2017
User: IPCE
Dark Spectrum Present: Yes
Reference Spectrum Present: Yes
Number of Sampled Component Spectra: 1
Spectrometers: HR+C0708
Integration Time (usec): 1000 (HR+C0708)
Spectra Averaged: 10 (HR+C0708)
Boxcar Smoothing: 0 (HR+C0708)
Correct for Electrical Dark: No (HR+C0708)
Strobe/Lamp Enabled: No (HR+C0708)
Correct for Detector Non-linearity: No (HR+C0708)
Correct for Stray Light: No (HR+C0708)
Number of Pixels in Processed Spectrum: 2048
>>>>>Begin Processed Spectral Data<<<<<
188.76	-0.123
189.23	-0.157
189.70	-0.168
190.17	0.389
190.64	0.301
191.12	0.229
191.59	-0.040
192.06	1.067
192.53	0.212
193.01	1.007
193.48	-0.339
193.95	0.262
194.42	0.073
194.90	0.298
195.37	-0.076
195.84	-0.107
196.31	0.298
196.78	0.062
197.26	-0.000
197.73	0.259
198.20	0.188
198.67	0.135
199.14	0.033
199.62	0.548
200.09	0.342
200.56	0.172
201.03	0.273
201.50	0.341
201.97	0.317
202.45	0.746
202.92	0.381
203.39	0.462
203.86	0.725
204.33	0.267
204.80	0.436
205.28	0.417
205.75	0.422
206.22	0.488
206.69	0.697
207.16	0.369
207.63	0.355
208.11	0.443
208.58	0.327
209.05	0.562
209.52	0.498
209.99	0.361
210.46	0.297
210.93	0.283
211.41	0.329
211.88	0.393
212.35	0.435
212.82	0.248
213.29	0.672
213.76	0.427
214.23	0.338
214.70	0.342
215.18	0.345
215.65	0.376
216.12	0.337
216.59	0.437
217.06	0.651
217.53	0.328
218.00	0.375
218.47	0.490
218.94	0.351
219.41	0.513
219.89	0.442
220.36	0.488
220.83	0.796
221.30	0.418
221.77	0.628
222.24	0.523
222.71	0.713
223.18	0.560
223.65	0.718
224.12	0.554
224.59	0.727
225.06	0.618
225.54	0.609
226.01	0.660
226.48	0.691
226.95	0.602
227.42	0.743
227.89	0.826
228.36	0.872
228.83	0.961
229.30	1.004
229.77	1.173
230.24	1.328
230.71	1.096
231.18	1.244
231.65	1.457
232.12	1.510
232.59	1.434
233.06	1.448
233.53	1.593
234.00	1.637
234.47	1.584
234.94	1.781
235.41	1.762
235.88	1.673
236.35	1.642
236.82	1.804
237.29	1.701
237.76	1.832
238.23	1.879
238.70	2.001
239.17	2.193
239.64	1.935
240.11	2.021
240.58	2.106
241.05	2.109
241.52	2.036
241.99	2.115
242.46	1.982
242.93	2.217
243.40	2.117
243.87	2.222
244.34	2.486
244.81	2.279
245.28	2.305
245.75	2.368
246.22	2.355
246.69	2.293
247.16	2.394
247.63	2.320
248.10	2.477
248.57	2.161
249.04	2.237
249.51	2.376
249.98	2.282
250.45	2.646
250.92	2.312
251.39	2.281
251.85	2.268
252.32	2.213
252.79	2.157
253.26	2.195
253.73	2.047
254.20	2.015
254.67	1.966
255.14	1.888
255.61	1.896
256.08	1.911
256.55	1.820
257.02	1.793
257.49	1.760
257.95	1.714
258.42	1.705
258.89	1.640
259.36	1.631
259.83	1.602
260.30	1.585
260.77	1.568
261.24	1.546
261.71	1.518
262.17	1.507
262.64	1.489
263.11	1.456
263.58	1.462
264.05	1.431
264.52	1.416
264.99	1.403
265.46	1.381
265.92	1.372
266.39	1.354
266.86	1.337
267.33	1.335
267.80	1.323
268.27	1.303
268.74	1.296
269.20	1.280
269.67	1.270
270.14	1.260
270.61	1.245
271.08	1.233
271.55	1.231
272.01	1.204
272.48	1.213
272.95	1.201
273.42	1.181
273.89	1.177
274.36	1.176
274.82	1.166
275.29	1.165
275.76	1.150
276.23	1.141
276.70	1.140
277.16	1.131
277.63	1.122
278.10	1.122
278.57	1.116
279.04	1.114
279.50	1.112
279.97	1.102
280.44	1.099
280.91	1.094
281.38	1.090
281.84	1.090
282.31	1.093
282.78	1.087
283.25	1.086
283.72	1.075
284.18	1.080
284.65	1.078
285.12	1.073
285.59	1.076
286.05	1.076
286.52	1.067
286.99	1.072
287.46	1.072
287.92	1.064
288.39	1.070
288.86	1.060
289.33	1.067
289.79	1.065
290.26	1.062
290.73	1.061
291.20	1.053
291.66	1.054
292.13	1.047
292.60	1.040
293.07	1.039
293.53	1.036
294.00	1.026
294.47	1.021
294.93	1.016
295.40	1.004
295.87	1.003
296.34	0.986
296.80	0.976
297.27	0.973
297.74	0.970
298.20	0.957
298.67	0.951
299.14	0.937
299.60	0.930
300.07	0.918
300.54	0.906
301.01	0.899
301.47	0.890
301.94	0.878
302.41	0.874
302.87	0.863
303.34	0.859
303.81	0.851
304.27	0.840
304.74	0.836
305.21	0.826
305.67	0.812
306.14	0.811
306.61	0.797
307.07	0.798
307.54	0.795
308.01	0.782
308.47	0.786
308.94	0.774
309.40	0.771
309.87	0.757
310.34	0.763
310.80	0.757
311.27	0.749
311.74	0.748
312.20	0.739
312.67	0.739
313.13	0.733
313.60	0.729
314.07	0.729
314.53	0.718
315.00	0.719
315.47	0.718
315.93	0.714
316.40	0.720
316.86	0.713
317.33	0.707
317.80	0.700
318.26	0.699
318.73	0.697
319.19	0.695
319.66	0.689
320.13	0.688
320.59	0.687
321.06	0.683
321.52	0.682
321.99	0.683
322.45	0.674
322.92	0.673
323.39	0.666
323.85	0.664
324.32	0.667
324.78	0.659
325.25	0.655
325.71	0.653
326.18	0.645
326.64	0.647
327.11	0.644
327.58	0.648
328.04	0.642
328.51	0.636
328.97	0.635
329.44	0.634
329.90	0.627
330.37	0.621
330.83	0.620
331.30	0.616
331.76	0.615
332.23	0.613
332.69	0.606
333.16	0.602
333.62	0.604
334.09	0.599
334.56	0.594
335.02	0.591
335.49	0.586
335.95	0.583
336.42	0.577
336.88	0.575
337.35	0.574
337.81	0.576
338.28	0.574
338.74	0.574
339.20	0.568
339.67	0.572
340.13	0.565
340.60	0.566
341.06	0.558
341.53	0.558
341.99	0.560
342.46	0.558
342.92	0.555
343.39	0.558
343.85	0.553
344.32	0.552
344.78	0.553
345.25	0.546
345.71	0.548
346.17	0.548
346.64	0.543
347.10	0.542
347.57	0.537
348.03	0.536
348.50	0.533
348.96	0.531
349.43	0.526
349.89	0.518
350.35	0.519
350.82	0.511
351.28	0.508
351.75	0.502
352.21	0.503
352.67	0.494
353.14	0.484
353.60	0.480
354.07	0.470
354.53	0.464
355.00	0.460
355.46	0.444
355.92	0.440
356.39	0.436
356.85	0.419
357.31	0.413
357.78	0.408
358.24	0.394
358.71	0.386
359.17	0.370
359.63	0.355
360.10	0.348
360.56	0.330
361.03	0.314
361.49	0.305
361.95	0.286
362.42	0.269
362.88	0.256
363.34	0.237
363.81	0.225
364.27	0.211
364.73	0.195
365.20	0.187
365.66	0.176
366.12	0.161
366.59	0.155
367.05	0.142
367.51	0.137
367.98	0.128
368.44	0.127
368.90	0.121
369.37	0.117
369.83	0.110
370.29	0.110
370.76	0.108
371.22	0.104
371.68	0.104
372.15	0.098
372.61	0.101
373.07	0.097
373.54	0.096
374.00	0.093
374.46	0.095
374.92	0.090
375.39	0.095
375.85	0.092
376.31	0.090
376.78	0.093
377.24	0.089
377.70	0.089
378.16	0.091
378.63	0.087
379.09	0.087
379.55	0.086
380.01	0.085
380.48	0.088
380.94	0.088
381.40	0.083
381.87	0.083
382.33	0.084
382.79	0.082
383.25	0.083
383.72	0.083
384.18	0.083
384.64	0.082
385.10	0.082
385.56	0.083
386.03	0.080
386.49	0.081
386.95	0.080
387.41	0.079
387.88	0.079
388.34	0.080
388.80	0.077
389.26	0.076
389.72	0.078
390.19	0.078
390.65	0.075
391.11	0.080
391.57	0.078
392.04	0.079
392.50	0.073
392.96	0.073
393.42	0.074
393.88	0.078
394.34	0.076
394.81	0.074
395.27	0.073
395.73	0.071
396.19	0.077
396.65	0.076
397.12	0.073
397.58	0.071
398.04	0.075
398.50	0.072
398.96	0.072
399.42	0.069
399.89	0.071
400.35	0.069
400.81	0.071
401.27	0.074
401.73	0.068
402.19	0.067
402.65	0.067
403.12	0.068
403.58	0.070
404.04	0.068
404.50	0.068
404.96	0.067
405.42	0.065
405.88	0.067
406.34	0.067
406.81	0.067
407.27	0.066
407.73	0.065
408.19	0.061
408.65	0.065
409.11	0.065
409.57	0.062
410.03	0.064
410.49	0.062
410.96	0.063
411.42	0.062
411.88	0.063
412.34	0.063
412.80	0.063
413.26	0.063
413.72	0.061
414.18	0.062
414.64	0.058
415.10	0.060
415.56	0.062
416.02	0.057
416.48	0.060
416.95	0.061
417.41	0.059
417.87	0.058
418.33	0.058
418.79	0.061
419.25	0.060
419.71	0.058
420.17	0.060
420.63	0.058
421.09	0.059
421.55	0.058
422.01	0.054
422.47	0.057
422.93	0.059
423.39	0.057
423.85	0.058
424.31	0.056
424.77	0.055
425.23	0.055
425.69	0.059
426.15	0.058
426.61	0.058
427.07	0.056
427.53	0.059
427.99	0.056
428.45	0.058
428.91	0.054
429.37	0.056
429.83	0.056
430.29	0.056
430.75	0.054
431.21	0.055
431.67	0.056
432.13	0.052
432.59	0.055
433.05	0.053
433.51	0.051
433.97	0.057
434.43	0.054
434.89	0.053
435.35	0.056
435.81	0.049
436.27	0.051
436.73	0.053
437.19	0.052
437.65	0.052
438.11	0.054
438.57	0.052
439.03	0.052
439.48	0.054
439.94	0.052
440.40	0.051
440.86	0.054
441.32	0.051
441.78	0.051
442.24	0.047
442.70	0.053
443.16	0.052
443.62	0.050
444.08	0.054
444.54	0.052
444.99	0.053
445.45	0.050
445.91	0.049
446.37	0.050
446.83	0.049
447.29	0.054
447.75	0.051
448.21	0.050
448.67	0.051
449.12	0.048
449.58	0.048
450.04	0.048
450.50	0.047
450.96	0.045
451.42	0.049
451.88	0.052
452.34	0.049
452.79	0.049
453.25	0.049
453.71	0.047
454.17	0.051
454.63	0.051
455.09	0.047
455.55	0.046
456.00	0.047
456.46	0.050
456.92	0.049
457.38	0.052
457.84	0.046
458.30	0.051
458.75	0.046
459.21	0.048
459.67	0.046
460.13	0.051
460.59	0.052
461.04	0.046
461.50	0.049
461.96	0.046
462.42	0.049
462.88	0.046
463.33	0.048
463.79	0.050
464.25	0.047
464.71	0.049
465.17	0.048
465.62	0.049
466.08	0.049
466.54	0.048
467.00	0.049
467.46	0.049
467.91	0.049
468.37	0.049
468.83	0.051
469.29	0.049
469.74	0.050
470.20	0.048
470.66	0.050
471.12	0.049
471.57	0.048
472.03	0.049
472.49	0.047
472.95	0.048
473.40	0.051
473.86	0.048
474.32	0.046
474.78	0.049
475.23	0.047
475.69	0.049
476.15	0.050
476.60	0.048
477.06	0.048
477.52	0.050
477.98	0.050
478.43	0.051
478.89	0.052
479.35	0.049
479.80	0.050
480.26	0.046
480.72	0.049
481.18	0.050
481.63	0.049
482.09	0.049
482.55	0.048
483.00	0.048
483.46	0.050
483.92	0.048
484.37	0.050
484.83	0.049
485.29	0.051
485.74	0.049
486.20	0.049
486.66	0.049
487.11	0.052
487.57	0.052
488.03	0.050
488.48	0.046
488.94	0.050
489.40	0.050
489.85	0.049
490.31	0.047
490.77	0.051
491.22	0.048
491.68	0.047
492.13	0.051
492.59	0.048
493.05	0.048
493.50	0.048
493.96	0.046
494.42	0.051
494.87	0.051
495.33	0.050
495.78	0.048
496.24	0.047
496.70	0.050
497.15	0.049
497.61	0.048
498.06	0.051
498.52	0.049
498.98	0.050
499.43	0.047
499.89	0.049
500.34	0.048
500.80	0.050
501.25	0.049
501.71	0.049
502.17	0.048
502.62	0.049
503.08	0.047
503.53	0.048
503.99	0.049
504.44	0.049
504.90	0.047
505.36	0.048
505.81	0.047
506.27	0.047
506.72	0.048
507.18	0.050
507.63	0.048
508.09	0.049
508.54	0.048
509.00	0.048
509.45	0.049
509.91	0.049
510.36	0.048
510.82	0.050
511.27	0.046
511.73	0.047
512.19	0.046
512.64	0.050
513.10	0.048
513.55	0.047
514.01	0.047
514.46	0.048
514.92	0.046
515.37	0.046
515.83	0.043
516.28	0.048
516.73	0.046
517.19	0.046
517.64	0.044
518.10	0.046
518.55	0.047
519.01	0.045
519.46	0.045
519.92	0.048
520.37	0.051
520.83	0.049
521.28	0.050
521.74	0.046
522.19	0.047
522.65	0.047
523.10	0.046
523.55	0.046
524.01	0.049
524.46	0.047
524.92	0.047
525.37	0.046
525.83	0.048
526.28	0.046
526.73	0.047
527.19	0.049
527.64	0.049
528.10	0.048
528.55	0.049
529.01	0.048
529.46	0.049
529.91	0.049
530.37	0.047
530.82	0.048
531.28	0.051
531.73	0.049
532.18	0.049
532.64	0.049
533.09	0.047
533.54	0.048
534.00	0.048
534.45	0.050
534.91	0.048
535.36	0.049
535.81	0.049
536.27	0.054
536.72	0.047
537.17	0.049
537.63	0.051
538.08	0.053
538.54	0.051
538.99	0.050
539.44	0.056
539.90	0.054
540.35	0.051
540.80	0.051
541.26	0.052
541.71	0.053
542.16	0.053
542.62	0.054
543.07	0.054
543.52	0.054
543.98	0.056
544.43	0.054
544.88	0.055
545.34	0.058
545.79	0.058
546.24	0.058
546.69	0.054
547.15	0.057
547.60	0.060
548.05	0.057
548.51	0.057
548.96	0.057
549.41	0.060
549.86	0.062
550.32	0.060
550.77	0.061
551.22	0.063
551.68	0.060
552.13	0.060
552.58	0.064
553.03	0.063
553.49	0.063
553.94	0.063
554.39	0.066
554.84	0.067
555.30	0.067
555.75	0.067
556.20	0.068
556.65	0.068
557.11	0.068
557.56	0.069
558.01	0.067
558.46	0.070
558.92	0.071
559.37	0.072
559.82	0.073
560.27	0.073
560.72	0.072
561.18	0.072
561.63	0.075
562.08	0.076
562.53	0.075
562.99	0.074
563.44	0.075
563.89	0.074
564.34	0.077
564.79	0.078
565.25	0.079
565.70	0.079
566.15	0.080
566.60	0.079
567.05	0.081
567.50	0.084
567.96	0.085
568.41	0.084
568.86	0.083
569.31	0.085
569.76	0.086
570.21	0.085
570.67	0.087
571.12	0.090
571.57	0.090
572.02	0.090
572.47	0.091
572.92	0.091
573.37	0.092
573.83	0.095
574.28	0.094
574.73	0.094
575.18	0.095
575.63	0.097
576.08	0.096
576.53	0.098
576.98	0.100
577.44	0.101
577.89	0.101
578.34	0.102
578.79	0.106
579.24	0.104
579.69	0.106
580.14	0.108
580.59	0.107
581.04	0.111
581.49	0.111
581.95	0.113
582.40	0.113
582.85	0.113
583.30	0.116
583.75	0.118
584.20	0.120
584.65	0.119
585.10	0.120
585.55	0.122
586.00	0.126
586.45	0.126
586.90	0.128
587.35	0.129
587.80	0.131
588.25	0.131
588.71	0.132
589.16	0.134
589.61	0.140
590.06	0.139
590.51	0.141
590.96	0.144
591.41	0.145
591.86	0.148
592.31	0.149
592.76	0.152
593.21	0.152
593.66	0.154
594.11	0.155
594.56	0.160
595.01	0.160
595.46	0.162
595.91	0.164
596.36	0.168
596.81	0.170
597.26	0.171
597.71	0.175
598.16	0.175
598.61	0.177
599.06	0.179
599.51	0.179
599.96	0.183
600.41	0.183
600.86	0.187
601.31	0.186
601.76	0.191
602.21	0.191
602.65	0.192
603.10	0.197
603.55	0.199
604.00	0.201
604.45	0.201
604.90	0.203
605.35	0.206
605.80	0.205
606.25	0.206
606.70	0.211
607.15	0.212
607.60	0.213
608.05	0.213
608.50	0.217
608.95	0.218
609.39	0.219
609.84	0.221
610.29	0.221
610.74	0.223
611.19	0.224
611.64	0.225
612.09	0.227
612.54	0.230
612.99	0.228
613.44	0.228
613.88	0.232
614.33	0.228
614.78	0.231
615.23	0.233
615.68	0.232
616.13	0.235
616.58	0.232
617.03	0.234
617.47	0.236
617.92	0.237
618.37	0.238
618.82	0.239
619.27	0.237
619.72	0.240
620.17	0.241
620.61	0.238
621.06	0.243
621.51	0.241
621.96	0.242
622.41	0.243
622.86	0.241
623.30	0.244
623.75	0.242
624.20	0.246
624.65	0.248
625.10	0.248
625.54	0.248
625.99	0.249
626.44	0.250
626.89	0.249
627.34	0.250
627.78	0.252
628.23	0.255
628.68	0.256
629.13	0.256
629.58	0.258
630.02	0.260
630.47	0.259
630.92	0.265
631.37	0.265
631.81	0.266
632.26	0.267
632.71	0.271
633.16	0.272
633.61	0.274
634.05	0.273
634.50	0.280
634.95	0.279
635.40	0.280
635.84	0.284
636.29	0.287
636.74	0.290
637.18	0.290
637.63	0.293
638.08	0.294
638.53	0.300
638.97	0.298
639.42	0.306
639.87	0.306
640.32	0.312
640.76	0.315
641.21	0.317
641.66	0.319
642.10	0.322
642.55	0.321
643.00	0.326
643.44	0.330
643.89	0.333
644.34	0.339
644.79	0.340
645.23	0.343
645.68	0.348
646.13	0.351
646.57	0.353
647.02	0.357
647.47	0.357
647.91	0.362
648.36	0.366
648.81	0.372
649.25	0.372
649.70	0.375
650.15	0.377
650.59	0.381
651.04	0.384
651.48	0.384
651.93	0.390
652.38	0.393
652.82	0.396
653.27	0.399
653.72	0.405
654.16	0.405
654.61	0.405
655.06	0.412
655.50	0.411
655.95	0.413
656.39	0.416
656.84	0.420
657.29	0.420
657.73	0.425
658.18	0.424
658.62	0.428
659.07	0.432
659.52	0.433
659.96	0.432
660.41	0.435
660.85	0.432
661.30	0.437
661.74	0.440
662.19	0.442
662.64	0.438
663.08	0.442
663.53	0.443
663.97	0.443
664.42	0.442
664.86	0.442
665.31	0.442
665.75	0.442
666.20	0.441
666.65	0.442
667.09	0.438
667.54	0.438
667.98	0.435
668.43	0.433
668.87	0.435
669.32	0.432
669.76	0.425
670.21	0.424
670.65	0.419
671.10	0.416
671.54	0.412
671.99	0.406
672.43	0.402
672.88	0.396
673.32	0.389
673.77	0.383
674.21	0.378
674.66	0.368
675.10	0.364
675.55	0.358
675.99	0.351
676.44	0.345
676.88	0.334
677.33	0.325
677.77	0.320
678.22	0.311
678.66	0.306
679.11	0.297
679.55	0.286
679.99	0.279
680.44	0.271
680.88	0.262
681.33	0.256
681.77	0.249
682.22	0.238
682.66	0.229
683.11	0.222
683.55	0.213
683.99	0.208
684.44	0.199
684.88	0.192
685.33	0.184
685.77	0.179
686.21	0.173
686.66	0.167
687.10	0.157
687.55	0.153
687.99	0.147
688.44	0.142
688.88	0.135
689.32	0.131
689.77	0.125
690.21	0.119
690.65	0.117
691.10	0.110
691.54	0.107
691.99	0.104
692.43	0.097
692.87	0.097
693.32	0.091
693.76	0.088
694.20	0.085
694.65	0.084
695.09	0.078
695.53	0.077
695.98	0.073
696.42	0.069
696.86	0.066
697.31	0.068
697.75	0.064
698.19	0.060
698.64	0.060
699.08	0.058
699.52	0.054
699.97	0.054
700.41	0.052
700.85	0.051
701.30	0.050
701.74	0.045
702.18	0.046
702.63	0.045
703.07	0.044
703.51	0.041
703.96	0.042
704.40	0.043
704.84	0.040
705.28	0.040
705.73	0.037
706.17	0.037
706.61	0.037
707.06	0.035
707.50	0.034
707.94	0.034
708.38	0.032
708.83	0.034
709.27	0.031
709.71	0.032
710.15	0.030
710.60	0.032
711.04	0.032
711.48	0.030
711.92	0.030
712.37	0.033
712.81	0.030
713.25	0.029
713.69	0.030
714.13	0.028
714.58	0.027
715.02	0.026
715.46	0.027
715.90	0.025
716.35	0.025
716.79	0.027
717.23	0.027
717.67	0.026
718.11	0.025
718.56	0.025
719.00	0.025
719.44	0.026
719.88	0.028
720.32	0.027
720.76	0.023
721.21	0.028
721.65	0.029
722.09	0.027
722.53	0.026
722.97	0.027
723.41	0.025
723.86	0.025
724.30	0.025
724.74	0.026
725.18	0.026
725.62	0.025
726.06	0.026
726.50	0.026
726.95	0.026
727.39	0.026
727.83	0.025
728.27	0.025
728.71	0.025
729.15	0.027
729.59	0.027
730.03	0.029
730.48	0.027
730.92	0.026
731.36	0.027
731.80	0.026
732.24	0.028
732.68	0.028
733.12	0.026
733.56	0.027
734.00	0.028
734.44	0.029
734.89	0.025
735.33	0.029
735.77	0.028
736.21	0.028
736.65	0.031
737.09	0.029
737.53	0.029
737.97	0.030
738.41	0.029
738.85	0.028
739.29	0.028
739.73	0.029
740.17	0.028
740.61	0.031
741.05	0.031
741.49	0.029
741.93	0.030
742.37	0.030
742.81	0.029
743.26	0.029
743.70	0.030
744.14	0.030
744.58	0.030
745.02	0.031
745.46	0.027
745.90	0.029
746.34	0.030
746.78	0.031
747.22	0.030
747.66	0.030
748.10	0.029
748.54	0.029
748.98	0.030
749.42	0.028
749.86	0.028
750.29	0.032
750.73	0.030
751.17	0.025
751.61	0.031
752.05	0.029
752.49	0.028
752.93	0.031
753.37	0.029
753.81	0.029
754.25	0.027
754.69	0.030
755.13	0.031
755.57	0.029
756.01	0.029
756.45	0.025
756.89	0.031
757.33	0.031
757.77	0.027
758.21	0.030
758.64	0.029
759.08	0.028
759.52	0.028
759.96	0.032
760.40	0.027
760.84	0.025
761.28	0.028
761.72	0.026
762.16	0.026
762.60	0.025
763.03	0.026
763.47	0.026
763.91	0.024
764.35	0.027
764.79	0.032
765.23	0.029
765.67	0.026
766.11	0.029
766.54	0.030
766.98	0.026
767.42	0.030
767.86	0.031
768.30	0.030
768.74	0.029
769.17	0.030
769.61	0.027
770.05	0.025
770.49	0.025
770.93	0.029
771.37	0.028
771.80	0.029
772.24	0.029
772.68	0.029
773.12	0.027
773.56	0.028
774.00	0.028
774.43	0.028
774.87	0.027
775.31	0.028
775.75	0.029
776.19	0.028
776.62	0.026
777.06	0.028
777.50	0.029
777.94	0.031
778.37	0.027
778.81	0.033
779.25	0.029
779.69	0.028
780.13	0.028
780.56	0.028
781.00	0.032
781.44	0.032
781.88	0.031
782.31	0.032
782.75	0.029
783.19	0.028
783.63	0.030
784.06	0.027
784.50	0.030
784.94	0.029
785.37	0.028
785.81	0.029
786.25	0.026
786.69	0.025
787.12	0.028
787.56	0.029
788.00	0.023
788.43	0.028
788.87	0.029
789.31	0.027
789.75	0.031
790.18	0.026
790.62	0.028
791.06	0.029
791.49	0.030
791.93	0.028
792.37	0.026
792.80	0.027
793.24	0.027
793.68	0.028
794.11	0.029
794.55	0.023
794.99	0.027
795.42	0.028
795.86	0.029
796.30	0.029
796.73	0.029
797.17	0.028
797.61	0.026
798.04	0.025
798.48	0.023
798.91	0.028
799.35	0.029
799.79	0.028
800.22	0.026
800.66	0.024
801.10	0.028
801.53	0.026
801.97	0.028
802.40	0.028
802.84	0.029
803.28	0.029
803.71	0.026
804.15	0.033
804.58	0.024
805.02	0.025
805.46	0.027
805.89	0.026
806.33	0.028
806.76	0.028
807.20	0.026
807.63	0.028
808.07	0.029
808.51	0.025
808.94	0.028
809.38	0.027
809.81	0.028
810.25	0.030
810.68	0.028
811.12	0.029
811.55	0.023
811.99	0.028
812.42	0.025
812.86	0.027
813.29	0.028
813.73	0.027
814.17	0.029
814.60	0.021
815.04	0.027
815.47	0.029
815.91	0.025
816.34	0.025
816.78	0.027
817.21	0.025
817.65	0.027
818.08	0.029
818.52	0.024
818.95	0.026
819.39	0.028
819.82	0.029
820.25	0.030
820.69	0.029
821.12	0.029
821.56	0.034
821.99	0.026
822.43	0.030
822.86	0.025
823.30	0.028
823.73	0.026
824.17	0.032
824.60	0.024
825.04	0.032
825.47	0.028
825.90	0.030
826.34	0.027
826.77	0.030
827.21	0.028
827.64	0.026
828.08	0.035
828.51	0.031
828.94	0.027
829.38	0.033
829.81	0.033
830.25	0.032
830.68	0.034
831.11	0.036
831.55	0.035
831.98	0.032
832.42	0.035
832.85	0.033
833.28	0.030
833.72	0.034
834.15	0.038
834.58	0.039
835.02	0.032
835.45	0.031
835.88	0.033
836.32	0.032
836.75	0.035
837.19	0.034
837.62	0.039
838.05	0.039
838.49	0.031
838.92	0.034
839.35	0.033
839.79	0.033
840.22	0.039
840.65	0.033
841.09	0.040
841.52	0.035
841.95	0.036
842.39	0.036
842.82	0.037
843.25	0.034
843.68	0.038
844.12	0.036
844.55	0.037
844.98	0.034
845.42	0.031
845.85	0.042
846.28	0.042
846.71	0.040
847.15	0.037
847.58	0.039
848.01	0.033
848.45	0.035
848.88	0.039
849.31	0.035
849.74	0.040
850.18	0.035
850.61	0.036
851.04	0.037
851.47	0.039
851.91	0.041
852.34	0.040
852.77	0.040
853.20	0.037
853.64	0.038
854.07	0.039
854.50	0.038
854.93	0.038
855.36	0.037
855.80	0.035
856.23	0.045
856.66	0.044
857.09	0.039
857.52	0.042
857.96	0.041
858.39	0.043
858.82	0.038
859.25	0.039
859.68	0.038
860.12	0.042
860.55	0.036
860.98	0.036
861.41	0.038
861.84	0.040
862.27	0.043
862.71	0.037
863.14	0.035
863.57	0.040
864.00	0.039
864.43	0.037
864.86	0.034
865.30	0.041
865.73	0.042
866.16	0.046
866.59	0.040
867.02	0.038
867.45	0.043
867.88	0.041
868.31	0.040
868.75	0.041
869.18	0.045
869.61	0.043
870.04	0.040
870.47	0.044
870.90	0.042
871.33	0.044
871.76	0.041
872.19	0.040
872.62	0.044
873.06	0.048
873.49	0.049
873.92	0.044
874.35	0.038
874.78	0.048
875.21	0.040
875.64	0.042
876.07	0.041
876.50	0.049
876.93	0.046
877.36	0.051
877.79	0.047
878.22	0.047
878.65	0.052
879.08	0.046
879.51	0.042
879.94	0.037
880.37	0.046
880.80	0.044
881.23	0.047
881.67	0.045
882.10	0.037
882.53	0.044
882.96	0.048
883.39	0.048
883.82	0.050
884.25	0.055
884.68	0.052
885.11	0.047
885.54	0.049
885.97	0.045
886.39	0.054
886.82	0.046
887.25	0.053
887.68	0.045
888.11	0.047
888.54	0.052
888.97	0.046
889.40	0.049
889.83	0.055
890.26	0.050
890.69	0.048
891.12	0.052
891.55	0.050
891.98	0.052
892.41	0.053
892.84	0.050
893.27	0.051
893.70	0.054
894.13	0.051
894.56	0.053
894.98	0.054
895.41	0.050
895.84	0.049
896.27	0.051
896.70	0.053
897.13	0.056
897.56	0.056
897.99	0.053
898.42	0.058
898.85	0.060
899.27	0.054
899.70	0.057
900.13	0.057
900.56	0.058
900.99	0.056
901.42	0.052
901.85	0.055
902.28	0.055
902.70	0.059
903.13	0.056
903.56	0.056
903.99	0.058
904.42	0.057
904.85	0.056
905.27	0.059
905.70	0.060
906.13	0.058
906.56	0.062
906.99	0.056
907.42	0.056
907.84	0.054
908.27	0.057
908.70	0.059
909.13	0.058
909.56	0.055
909.98	0.056
910.41	0.058
910.84	0.056
911.27	0.058
911.70	0.056
912.12	0.059
912.55	0.057
912.98	0.058
913.41	0.056
913.84	0.055
914.26	0.053
914.69	0.057
915.12	0.056
915.55	0.058
915.97	0.062
916.40	0.054
916.83	0.055
917.26	0.056
917.68	0.062
918.11	0.056
918.54	0.060
918.97	0.058
919.39	0.063
919.82	0.057
920.25	0.058
920.67	0.061
921.10	0.058
921.53	0.057
921.96	0.061
922.38	0.058
922.81	0.062
923.24	0.063
923.66	0.059
924.09	0.061
924.52	0.067
924.94	0.067
925.37	0.065
925.80	0.068
926.22	0.071
926.65	0.068
927.08	0.065
927.50	0.071
927.93	0.072
928.36	0.069
928.78	0.072
929.21	0.073
929.64	0.079
930.06	0.074
930.49	0.075
930.92	0.076
931.34	0.077
931.77	0.075
932.20	0.081
932.62	0.082
933.05	0.076
933.47	0.083
933.90	0.087
934.33	0.083
934.75	0.081
935.18	0.085
935.61	0.087
936.03	0.091
936.46	0.090
936.88	0.093
937.31	0.095
937.73	0.093
938.16	0.093
938.59	0.097
939.01	0.100
939.44	0.101
939.86	0.104
940.29	0.107
940.71	0.106
941.14	0.100
941.57	0.106
941.99	0.117
942.42	0.113
942.84	0.109
943.27	0.109
943.69	0.117
944.12	0.128
944.54	0.126
944.97	0.125
945.39	0.120
945.82	0.128
946.24	0.134
946.67	0.134
947.09	0.137
947.52	0.137
947.94	0.138
948.37	0.139
948.79	0.141
949.22	0.146
949.64	0.145
950.07	0.152
950.49	0.147
950.92	0.156
951.34	0.166
951.77	0.158
952.19	0.164
952.62	0.171
953.04	0.168
953.47	0.168
953.89	0.174
954.32	0.175
954.74	0.178
955.17	0.186
955.59	0.188
956.01	0.188
956.44	0.189
956.86	0.193
957.29	0.205
957.71	0.197
958.14	0.200
958.56	0.204
958.98	0.209
959.41	0.205
959.83	0.210
960.26	0.216
960.68	0.210
961.10	0.211
961.53	0.211
961.95	0.220
962.38	0.213
962.80	0.216
963.22	0.219
963.65	0.217
964.07	0.214
964.50	0.223
964.92	0.221
965.34	0.218
965.77	0.227
966.19	0.224
966.61	0.223
967.04	0.221
967.46	0.224
967.88	0.225
968.31	0.227
968.73	0.233
969.15	0.233
969.58	0.224
970.00	0.226
970.42	0.227
970.85	0.234
971.27	0.229
971.69	0.228
972.12	0.229
972.54	0.239
972.96	0.230
973.39	0.227
973.81	0.228
974.23	0.232
974.65	0.239
975.08	0.236
975.50	0.241
975.92	0.237
976.35	0.235
976.77	0.233
977.19	0.232
977.61	0.237
978.04	0.241
978.46	0.240
978.88	0.230
979.30	0.233
979.73	0.231
980.15	0.231
980.57	0.230
980.99	0.225
981.42	0.227
981.84	0.230
982.26	0.229
982.68	0.229
983.11	0.226
983.53	0.232
983.95	0.236
984.37	0.227
984.79	0.238
985.22	0.229
985.64	0.230
986.06	0.226
986.48	0.228
986.90	0.218
987.33	0.221
987.75	0.230
988.17	0.229
988.59	0.226
989.01	0.222
989.43	0.224
989.86	0.221
990.28	0.223
990.70	0.219
991.12	0.222
991.54	0.219
991.96	0.224
992.39	0.226
992.81	0.217
993.23	0.215
993.65	0.217
994.07	0.215
994.49	0.212
994.91	0.218
995.34	0.210
995.76	0.214
996.18	0.218
996.60	0.220
997.02	0.220
997.44	0.207
997.86	0.213
998.28	0.212
998.70	0.215
999.12	0.206
999.55	0.208
999.97	0.205
1000.39	0.200
1000.81	0.205
1001.23	0.202
1001.65	0.207
1002.07	0.207
1002.49	0.202
1002.91	0.202
1003.33	0.201
1003.75	0.199
1004.17	0.200
1004.59	0.202
1005.01	0.201
1005.43	0.197
1005.85	0.196
1006.28	0.203
1006.70	0.188
1007.12	0.183
1007.54	0.189
1007.96	0.187
1008.38	0.187
1008.80	0.193
1009.22	0.183
1009.64	0.179
1010.06	0.187
1010.48	0.192
1010.90	0.187
1011.32	0.174
1011.74	0.174
1012.16	0.172
1012.58	0.169
1013.00	0.167
1013.42	0.182
1013.84	0.167
1014.26	0.178
1014.67	0.185
1015.09	0.171
1015.51	0.176
1015.93	0.176
1016.35	0.168
1016.77	0.174
1017.19	0.164
1017.61	0.170
1018.03	0.175
1018.45	0.163
1018.87	0.156
1019.29	0.163
1019.71	0.171
1020.13	0.162
1020.55	0.150
1020.97	0.163
1021.38	0.151
1021.80	0.169
1022.22	0.153
1022.64	0.152
1023.06	0.144
1023.48	0.157
1023.90	0.150
1024.32	0.163
1024.74	0.158
1025.15	0.148
1025.57	0.147
1025.99	0.153
1026.41	0.132
1026.83	0.139
1027.25	0.157
1027.67	0.136
1028.08	0.138
1028.50	0.140
1028.92	0.152
1029.34	0.147
1029.76	0.132
1030.18	0.135
1030.60	0.137
1031.01	0.137
1031.43	0.131
1031.85	0.121
1032.27	0.130
1032.69	0.109
1033.10	0.118
1033.52	0.124
1033.94	0.144
1034.36	0.140
1034.78	0.129
1035.19	0.125
1035.61	0.127
1036.03	0.112
1036.45	0.141
1036.87	0.128
1037.28	0.106
1037.70	0.108
1038.12	0.122
1038.54	0.113
1038.95	0.112
1039.37	0.130
1039.79	0.108
1040.21	0.114
1040.62	0.120
1041.04	0.130
1041.46	0.107
1041.88	0.121
1042.29	0.119
1042.71	0.105
1043.13	0.087
1043.55	0.103
1043.96	0.116
1044.38	0.120
1044.80	0.099
1045.21	0.110
1045.63	0.121
1046.05	0.087
1046.47	0.090
1046.88	0.101
1047.30	0.116
1047.72	0.099
1048.13	0.099
1048.55	0.092
1048.97	0.122
1049.38	0.106
1049.80	0.086
1050.22	0.103
1050.63	0.112
1051.05	0.096
1051.47	0.095
1051.88	0.108
1052.30	0.068
1052.72	0.100
1053.13	0.105
1053.55	0.121
1053.97	0.115
1054.38	0.092
1054.80	0.113
1055.21	0.096
1055.63	0.081
1056.05	0.109
1056.46	0.100
1056.88	0.100
1057.29	0.086
1057.71	0.106
1058.13	0.090
1058.54	0.110
1058.96	0.103
1059.37	0.168
1059.79	0.099
1060.21	0.054
1060.62	0.093
1061.04	0.128
1061.45	0.113
1061.87	0.075
1062.28	0.082
1062.70	0.117
1063.12	0.079
1063.53	0.130
1063.95	0.118
1064.36	0.149
1064.78	0.072
1065.19	0.151
1065.61	0.123
1066.02	0.072
1066.44	0.044
1066.85	0.098
1067.27	0.126
1067.68	0.085
1068.10	0.137
1068.51	0.234
1068.93	0.154
1069.35	0.123
1069.76	0.212
1070.17	0.121
1070.59	0.144
1071.00	0.040
1071.42	0.160
1071.83	0.169
1072.25	0.167
1072.66	0.172
1073.08	0.288
1073.49	0.037
1073.91	0.171
1074.32	0.457
1074.74	0.193
1075.15	0.174
1075.57	0.240
1075.98	0.265
1076.40	0.074
1076.81	0.101
1077.22	0.295
1077.64	0.244
1078.05	0.033
1078.47	0.097
1078.88	0.383
1079.30	0.132
1079.71	0.079
1080.12	0.299
1080.54	0.170
1080.95	0.301
1081.37	0.192
1081.78	0.203
1082.19	0.268
1082.61	0.056
1083.02	0.016
1083.44	0.499
1083.85	0.166
1084.26	-0.102
1084.68	0.240
1085.09	0.152
1085.50	0.268
1085.92	0.436
1086.33	0.350
1086.74	-0.011
1087.16	0.179
1087.57	0.326
1087.98	0.469
1088.40	0.228
1088.81	0.344
1089.22	0.524
1089.64	0.285
1090.05	-0.011
1090.46	-0.050
1090.88	0.898
1091.29	0.320
1091.70	0.144
1092.12	0.417
1092.53	0.211
1092.94	-0.003
1093.36	0.010
1093.77	-0.000
1094.18	0.321
1094.59	0.442
1095.01	0.473
1095.42	0.449
1095.83	0.621
1096.25	0.278
1096.66	0.563
1097.07	0.301
1097.48	0.216
1097.90	-0.068
1098.31	-0.000
1098.72	0.590
1099.13	-0.147
>>>>>End Processed Spectral Data<<<<<
