SpectraSuite Data File
++++++++++++++++++++++++++++++++++++
Date: Tue Jul 11 15:59:32 CEST 2017
User: IPCE
Dark Spectrum Present: Yes
Reference Spectrum Present: Yes
Number of Sampled Component Spectra: 1
Spectrometers: HR+C0708
Integration Time (usec): 1000 (HR+C0708)
Spectra Averaged: 10 (HR+C0708)
Boxcar Smoothing: 0 (HR+C0708)
Correct for Electrical Dark: No (HR+C0708)
Strobe/Lamp Enabled: No (HR+C0708)
Correct for Detector Non-linearity: No (HR+C0708)
Correct for Stray Light: No (HR+C0708)
Number of Pixels in Processed Spectrum: 2048
>>>>>Begin Processed Spectral Data<<<<<
188.76	0.248
189.23	-0.077
189.70	-0.011
190.17	0.142
190.64	-0.121
191.12	0.402
191.59	1.049
192.06	0.891
192.53	0.287
193.01	1.785
193.48	-0.000
193.95	0.186
194.42	-0.011
194.90	0.371
195.37	-0.015
195.84	-0.286
196.31	0.544
196.78	0.390
197.26	-0.016
197.73	-0.071
198.20	0.480
198.67	0.077
199.14	-0.076
199.62	0.499
200.09	0.610
200.56	0.203
201.03	0.144
201.50	0.387
201.97	0.198
202.45	0.251
202.92	0.329
203.39	0.320
203.86	0.283
204.33	0.220
204.80	0.277
205.28	0.389
205.75	0.183
206.22	0.321
206.69	0.437
207.16	0.167
207.63	0.120
208.11	0.306
208.58	0.298
209.05	0.237
209.52	0.339
209.99	0.426
210.46	0.353
210.93	0.239
211.41	0.297
211.88	0.324
212.35	0.268
212.82	0.172
213.29	0.408
213.76	0.446
214.23	0.290
214.70	0.274
215.18	0.321
215.65	0.287
216.12	0.319
216.59	0.245
217.06	0.444
217.53	0.262
218.00	0.246
218.47	0.371
218.94	0.235
219.41	0.365
219.89	0.480
220.36	0.527
220.83	0.413
221.30	0.351
221.77	0.321
222.24	0.366
222.71	0.595
223.18	0.384
223.65	0.493
224.12	0.471
224.59	0.450
225.06	0.540
225.54	0.753
226.01	0.583
226.48	0.680
226.95	0.663
227.42	0.845
227.89	0.700
228.36	0.808
228.83	0.983
229.30	0.857
229.77	0.931
230.24	1.080
230.71	1.058
231.18	1.058
231.65	1.183
232.12	1.360
232.59	1.372
233.06	1.239
233.53	1.362
234.00	1.558
234.47	1.426
234.94	1.428
235.41	1.648
235.88	1.705
236.35	1.489
236.82	1.574
237.29	1.782
237.76	1.789
238.23	1.791
238.70	1.899
239.17	1.945
239.64	1.834
240.11	1.822
240.58	2.027
241.05	2.082
241.52	1.912
241.99	1.995
242.46	1.994
242.93	2.068
243.40	2.032
243.87	2.170
244.34	2.275
244.81	2.101
245.28	2.075
245.75	2.171
246.22	2.203
246.69	2.169
247.16	2.251
247.63	2.197
248.10	2.182
248.57	2.170
249.04	2.190
249.51	2.331
249.98	2.116
250.45	2.248
250.92	2.207
251.39	2.097
251.85	2.060
252.32	1.971
252.79	1.842
253.26	1.843
253.73	1.727
254.20	1.615
254.67	1.546
255.14	1.459
255.61	1.413
256.08	1.382
256.55	1.300
257.02	1.257
257.49	1.218
257.95	1.178
258.42	1.132
258.89	1.107
259.36	1.077
259.83	1.047
260.30	1.020
260.77	0.995
261.24	0.981
261.71	0.958
262.17	0.937
262.64	0.924
263.11	0.902
263.58	0.886
264.05	0.863
264.52	0.855
264.99	0.840
265.46	0.821
265.92	0.810
266.39	0.802
266.86	0.785
267.33	0.765
267.80	0.765
268.27	0.751
268.74	0.742
269.20	0.731
269.67	0.727
270.14	0.713
270.61	0.704
271.08	0.698
271.55	0.687
272.01	0.681
272.48	0.671
272.95	0.667
273.42	0.660
273.89	0.650
274.36	0.648
274.82	0.644
275.29	0.634
275.76	0.632
276.23	0.626
276.70	0.620
277.16	0.616
277.63	0.612
278.10	0.608
278.57	0.607
279.04	0.606
279.50	0.601
279.97	0.597
280.44	0.592
280.91	0.589
281.38	0.590
281.84	0.590
282.31	0.589
282.78	0.587
283.25	0.582
283.72	0.581
284.18	0.582
284.65	0.583
285.12	0.583
285.59	0.575
286.05	0.576
286.52	0.583
286.99	0.579
287.46	0.577
287.92	0.580
288.39	0.582
288.86	0.579
289.33	0.573
289.79	0.575
290.26	0.576
290.73	0.576
291.20	0.566
291.66	0.571
292.13	0.565
292.60	0.561
293.07	0.558
293.53	0.553
294.00	0.549
294.47	0.541
294.93	0.535
295.40	0.531
295.87	0.523
296.34	0.516
296.80	0.507
297.27	0.501
297.74	0.493
298.20	0.489
298.67	0.482
299.14	0.471
299.60	0.462
300.07	0.457
300.54	0.447
301.01	0.436
301.47	0.432
301.94	0.422
302.41	0.416
302.87	0.405
303.34	0.402
303.81	0.395
304.27	0.386
304.74	0.381
305.21	0.377
305.67	0.370
306.14	0.360
306.61	0.356
307.07	0.350
307.54	0.343
308.01	0.341
308.47	0.335
308.94	0.329
309.40	0.328
309.87	0.324
310.34	0.320
310.80	0.315
311.27	0.309
311.74	0.310
312.20	0.302
312.67	0.306
313.13	0.302
313.60	0.299
314.07	0.294
314.53	0.291
315.00	0.291
315.47	0.290
315.93	0.286
316.40	0.288
316.86	0.283
317.33	0.284
317.80	0.279
318.26	0.278
318.73	0.277
319.19	0.276
319.66	0.274
320.13	0.273
320.59	0.268
321.06	0.267
321.52	0.264
321.99	0.266
322.45	0.264
322.92	0.260
323.39	0.260
323.85	0.259
324.32	0.257
324.78	0.257
325.25	0.251
325.71	0.253
326.18	0.250
326.64	0.248
327.11	0.246
327.58	0.244
328.04	0.242
328.51	0.242
328.97	0.244
329.44	0.242
329.90	0.237
330.37	0.236
330.83	0.233
331.30	0.229
331.76	0.229
332.23	0.227
332.69	0.226
333.16	0.224
333.62	0.222
334.09	0.218
334.56	0.216
335.02	0.216
335.49	0.213
335.95	0.210
336.42	0.208
336.88	0.207
337.35	0.206
337.81	0.206
338.28	0.198
338.74	0.203
339.20	0.199
339.67	0.203
340.13	0.198
340.60	0.199
341.06	0.196
341.53	0.193
341.99	0.195
342.46	0.193
342.92	0.191
343.39	0.190
343.85	0.185
344.32	0.187
344.78	0.185
345.25	0.186
345.71	0.189
346.17	0.187
346.64	0.183
347.10	0.182
347.57	0.181
348.03	0.179
348.50	0.175
348.96	0.175
349.43	0.179
349.89	0.174
350.35	0.174
350.82	0.175
351.28	0.172
351.75	0.170
352.21	0.173
352.67	0.167
353.14	0.167
353.60	0.163
354.07	0.159
354.53	0.160
355.00	0.154
355.46	0.152
355.92	0.153
356.39	0.151
356.85	0.143
357.31	0.145
357.78	0.147
358.24	0.140
358.71	0.137
359.17	0.135
359.63	0.128
360.10	0.124
360.56	0.122
361.03	0.119
361.49	0.115
361.95	0.111
362.42	0.108
362.88	0.105
363.34	0.098
363.81	0.098
364.27	0.095
364.73	0.092
365.20	0.089
365.66	0.085
366.12	0.083
366.59	0.081
367.05	0.080
367.51	0.076
367.98	0.075
368.44	0.074
368.90	0.073
369.37	0.075
369.83	0.070
370.29	0.070
370.76	0.072
371.22	0.070
371.68	0.068
372.15	0.066
372.61	0.067
373.07	0.069
373.54	0.068
374.00	0.067
374.46	0.068
374.92	0.062
375.39	0.063
375.85	0.066
376.31	0.065
376.78	0.065
377.24	0.062
377.70	0.064
378.16	0.065
378.63	0.063
379.09	0.064
379.55	0.061
380.01	0.062
380.48	0.061
380.94	0.065
381.40	0.061
381.87	0.058
382.33	0.060
382.79	0.063
383.25	0.061
383.72	0.063
384.18	0.060
384.64	0.062
385.10	0.060
385.56	0.059
386.03	0.060
386.49	0.060
386.95	0.059
387.41	0.056
387.88	0.061
388.34	0.059
388.80	0.058
389.26	0.059
389.72	0.060
390.19	0.060
390.65	0.057
391.11	0.058
391.57	0.057
392.04	0.057
392.50	0.056
392.96	0.057
393.42	0.057
393.88	0.061
394.34	0.059
394.81	0.060
395.27	0.053
395.73	0.053
396.19	0.057
396.65	0.058
397.12	0.054
397.58	0.052
398.04	0.055
398.50	0.056
398.96	0.054
399.42	0.054
399.89	0.056
400.35	0.051
400.81	0.055
401.27	0.058
401.73	0.053
402.19	0.052
402.65	0.053
403.12	0.053
403.58	0.051
404.04	0.051
404.50	0.053
404.96	0.055
405.42	0.051
405.88	0.051
406.34	0.054
406.81	0.053
407.27	0.051
407.73	0.052
408.19	0.049
408.65	0.050
409.11	0.050
409.57	0.050
410.03	0.050
410.49	0.045
410.96	0.047
411.42	0.051
411.88	0.049
412.34	0.045
412.80	0.048
413.26	0.049
413.72	0.048
414.18	0.048
414.64	0.047
415.10	0.045
415.56	0.049
416.02	0.045
416.48	0.045
416.95	0.046
417.41	0.045
417.87	0.044
418.33	0.045
418.79	0.044
419.25	0.047
419.71	0.046
420.17	0.045
420.63	0.042
421.09	0.045
421.55	0.046
422.01	0.040
422.47	0.045
422.93	0.046
423.39	0.046
423.85	0.046
424.31	0.045
424.77	0.042
425.23	0.046
425.69	0.046
426.15	0.047
426.61	0.045
427.07	0.044
427.53	0.045
427.99	0.048
428.45	0.048
428.91	0.045
429.37	0.045
429.83	0.045
430.29	0.044
430.75	0.041
431.21	0.042
431.67	0.047
432.13	0.043
432.59	0.043
433.05	0.042
433.51	0.045
433.97	0.045
434.43	0.044
434.89	0.043
435.35	0.043
435.81	0.040
436.27	0.040
436.73	0.042
437.19	0.044
437.65	0.040
438.11	0.044
438.57	0.043
439.03	0.044
439.48	0.044
439.94	0.042
440.40	0.041
440.86	0.045
441.32	0.044
441.78	0.042
442.24	0.040
442.70	0.041
443.16	0.043
443.62	0.040
444.08	0.040
444.54	0.047
444.99	0.044
445.45	0.043
445.91	0.043
446.37	0.041
446.83	0.043
447.29	0.041
447.75	0.044
448.21	0.042
448.67	0.042
449.12	0.040
449.58	0.038
450.04	0.038
450.50	0.038
450.96	0.039
451.42	0.042
451.88	0.041
452.34	0.041
452.79	0.041
453.25	0.042
453.71	0.039
454.17	0.040
454.63	0.041
455.09	0.041
455.55	0.041
456.00	0.041
456.46	0.042
456.92	0.042
457.38	0.044
457.84	0.039
458.30	0.041
458.75	0.041
459.21	0.042
459.67	0.041
460.13	0.043
460.59	0.042
461.04	0.040
461.50	0.041
461.96	0.042
462.42	0.042
462.88	0.039
463.33	0.042
463.79	0.041
464.25	0.039
464.71	0.044
465.17	0.042
465.62	0.041
466.08	0.041
466.54	0.041
467.00	0.043
467.46	0.041
467.91	0.042
468.37	0.042
468.83	0.043
469.29	0.043
469.74	0.043
470.20	0.042
470.66	0.042
471.12	0.043
471.57	0.044
472.03	0.042
472.49	0.043
472.95	0.043
473.40	0.041
473.86	0.042
474.32	0.042
474.78	0.040
475.23	0.043
475.69	0.042
476.15	0.044
476.60	0.042
477.06	0.042
477.52	0.042
477.98	0.043
478.43	0.044
478.89	0.045
479.35	0.043
479.80	0.044
480.26	0.040
480.72	0.042
481.18	0.043
481.63	0.043
482.09	0.043
482.55	0.043
483.00	0.042
483.46	0.045
483.92	0.043
484.37	0.046
484.83	0.044
485.29	0.044
485.74	0.046
486.20	0.042
486.66	0.044
487.11	0.046
487.57	0.045
488.03	0.045
488.48	0.043
488.94	0.045
489.40	0.043
489.85	0.043
490.31	0.044
490.77	0.046
491.22	0.042
491.68	0.044
492.13	0.045
492.59	0.044
493.05	0.044
493.50	0.045
493.96	0.042
494.42	0.044
494.87	0.043
495.33	0.042
495.78	0.044
496.24	0.043
496.70	0.045
497.15	0.044
497.61	0.044
498.06	0.046
498.52	0.045
498.98	0.045
499.43	0.043
499.89	0.042
500.34	0.044
500.80	0.045
501.25	0.045
501.71	0.044
502.17	0.045
502.62	0.044
503.08	0.043
503.53	0.046
503.99	0.045
504.44	0.044
504.90	0.041
505.36	0.043
505.81	0.042
506.27	0.043
506.72	0.043
507.18	0.042
507.63	0.043
508.09	0.043
508.54	0.045
509.00	0.043
509.45	0.045
509.91	0.044
510.36	0.043
510.82	0.044
511.27	0.043
511.73	0.043
512.19	0.041
512.64	0.045
513.10	0.045
513.55	0.043
514.01	0.042
514.46	0.042
514.92	0.041
515.37	0.042
515.83	0.043
516.28	0.046
516.73	0.043
517.19	0.041
517.64	0.040
518.10	0.044
518.55	0.043
519.01	0.043
519.46	0.043
519.92	0.041
520.37	0.046
520.83	0.045
521.28	0.042
521.74	0.041
522.19	0.043
522.65	0.044
523.10	0.044
523.55	0.042
524.01	0.044
524.46	0.042
524.92	0.042
525.37	0.044
525.83	0.045
526.28	0.042
526.73	0.044
527.19	0.045
527.64	0.048
528.10	0.046
528.55	0.044
529.01	0.046
529.46	0.047
529.91	0.043
530.37	0.045
530.82	0.045
531.28	0.047
531.73	0.044
532.18	0.047
532.64	0.045
533.09	0.047
533.54	0.047
534.00	0.044
534.45	0.049
534.91	0.045
535.36	0.047
535.81	0.047
536.27	0.048
536.72	0.046
537.17	0.048
537.63	0.048
538.08	0.050
538.54	0.047
538.99	0.049
539.44	0.051
539.90	0.050
540.35	0.051
540.80	0.049
541.26	0.049
541.71	0.049
542.16	0.051
542.62	0.052
543.07	0.051
543.52	0.048
543.98	0.052
544.43	0.052
544.88	0.052
545.34	0.054
545.79	0.053
546.24	0.052
546.69	0.052
547.15	0.054
547.60	0.057
548.05	0.055
548.51	0.055
548.96	0.055
549.41	0.057
549.86	0.058
550.32	0.058
550.77	0.059
551.22	0.059
551.68	0.058
552.13	0.058
552.58	0.060
553.03	0.059
553.49	0.060
553.94	0.061
554.39	0.062
554.84	0.065
555.30	0.063
555.75	0.061
556.20	0.064
556.65	0.064
557.11	0.065
557.56	0.065
558.01	0.066
558.46	0.067
558.92	0.066
559.37	0.068
559.82	0.070
560.27	0.070
560.72	0.069
561.18	0.067
561.63	0.071
562.08	0.073
562.53	0.072
562.99	0.072
563.44	0.072
563.89	0.073
564.34	0.075
564.79	0.076
565.25	0.076
565.70	0.074
566.15	0.077
566.60	0.078
567.05	0.080
567.50	0.081
567.96	0.081
568.41	0.081
568.86	0.080
569.31	0.084
569.76	0.084
570.21	0.082
570.67	0.083
571.12	0.086
571.57	0.086
572.02	0.086
572.47	0.090
572.92	0.088
573.37	0.089
573.83	0.091
574.28	0.091
574.73	0.092
575.18	0.094
575.63	0.094
576.08	0.094
576.53	0.096
576.98	0.096
577.44	0.098
577.89	0.097
578.34	0.099
578.79	0.102
579.24	0.102
579.69	0.103
580.14	0.103
580.59	0.105
581.04	0.107
581.49	0.108
581.95	0.110
582.40	0.109
582.85	0.111
583.30	0.112
583.75	0.115
584.20	0.115
584.65	0.115
585.10	0.117
585.55	0.119
586.00	0.122
586.45	0.124
586.90	0.125
587.35	0.126
587.80	0.128
588.25	0.128
588.71	0.129
589.16	0.132
589.61	0.135
590.06	0.137
590.51	0.138
590.96	0.140
591.41	0.141
591.86	0.144
592.31	0.147
592.76	0.147
593.21	0.148
593.66	0.149
594.11	0.151
594.56	0.154
595.01	0.155
595.46	0.157
595.91	0.158
596.36	0.164
596.81	0.165
597.26	0.166
597.71	0.168
598.16	0.169
598.61	0.172
599.06	0.175
599.51	0.175
599.96	0.178
600.41	0.178
600.86	0.182
601.31	0.184
601.76	0.185
602.21	0.186
602.65	0.191
603.10	0.192
603.55	0.193
604.00	0.196
604.45	0.195
604.90	0.197
605.35	0.202
605.80	0.200
606.25	0.202
606.70	0.205
607.15	0.206
607.60	0.207
608.05	0.208
608.50	0.212
608.95	0.212
609.39	0.214
609.84	0.215
610.29	0.213
610.74	0.217
611.19	0.216
611.64	0.217
612.09	0.221
612.54	0.221
612.99	0.222
613.44	0.222
613.88	0.228
614.33	0.224
614.78	0.226
615.23	0.225
615.68	0.226
616.13	0.229
616.58	0.227
617.03	0.228
617.47	0.229
617.92	0.231
618.37	0.232
618.82	0.232
619.27	0.232
619.72	0.232
620.17	0.232
620.61	0.234
621.06	0.237
621.51	0.237
621.96	0.237
622.41	0.240
622.86	0.235
623.30	0.240
623.75	0.239
624.20	0.242
624.65	0.243
625.10	0.240
625.54	0.242
625.99	0.245
626.44	0.245
626.89	0.246
627.34	0.247
627.78	0.249
628.23	0.248
628.68	0.250
629.13	0.252
629.58	0.251
630.02	0.254
630.47	0.256
630.92	0.259
631.37	0.258
631.81	0.262
632.26	0.263
632.71	0.266
633.16	0.268
633.61	0.269
634.05	0.269
634.50	0.273
634.95	0.273
635.40	0.276
635.84	0.278
636.29	0.283
636.74	0.284
637.18	0.287
637.63	0.286
638.08	0.290
638.53	0.294
638.97	0.294
639.42	0.298
639.87	0.300
640.32	0.305
640.76	0.305
641.21	0.307
641.66	0.312
642.10	0.315
642.55	0.317
643.00	0.321
643.44	0.322
643.89	0.327
644.34	0.330
644.79	0.332
645.23	0.335
645.68	0.341
646.13	0.341
646.57	0.345
647.02	0.348
647.47	0.350
647.91	0.354
648.36	0.357
648.81	0.359
649.25	0.362
649.70	0.368
650.15	0.369
650.59	0.371
651.04	0.376
651.48	0.376
651.93	0.381
652.38	0.383
652.82	0.386
653.27	0.387
653.72	0.390
654.16	0.393
654.61	0.394
655.06	0.398
655.50	0.398
655.95	0.401
656.39	0.404
656.84	0.406
657.29	0.405
657.73	0.408
658.18	0.413
658.62	0.413
659.07	0.416
659.52	0.416
659.96	0.418
660.41	0.417
660.85	0.417
661.30	0.420
661.74	0.424
662.19	0.424
662.64	0.422
663.08	0.425
663.53	0.427
663.97	0.424
664.42	0.426
664.86	0.424
665.31	0.423
665.75	0.420
666.20	0.422
666.65	0.421
667.09	0.419
667.54	0.420
667.98	0.418
668.43	0.415
668.87	0.413
669.32	0.410
669.76	0.407
670.21	0.404
670.65	0.402
671.10	0.396
671.54	0.391
671.99	0.387
672.43	0.381
672.88	0.374
673.32	0.372
673.77	0.364
674.21	0.361
674.66	0.351
675.10	0.347
675.55	0.340
675.99	0.335
676.44	0.329
676.88	0.317
677.33	0.310
677.77	0.302
678.22	0.297
678.66	0.287
679.11	0.280
679.55	0.272
679.99	0.265
680.44	0.256
680.88	0.248
681.33	0.242
681.77	0.235
682.22	0.223
682.66	0.218
683.11	0.211
683.55	0.205
683.99	0.197
684.44	0.190
684.88	0.183
685.33	0.172
685.77	0.168
686.21	0.162
686.66	0.157
687.10	0.148
687.55	0.143
687.99	0.141
688.44	0.135
688.88	0.130
689.32	0.124
689.77	0.119
690.21	0.114
690.65	0.110
691.10	0.102
691.54	0.102
691.99	0.098
692.43	0.094
692.87	0.090
693.32	0.086
693.76	0.084
694.20	0.079
694.65	0.079
695.09	0.075
695.53	0.073
695.98	0.068
696.42	0.064
696.86	0.064
697.31	0.061
697.75	0.059
698.19	0.057
698.64	0.054
699.08	0.055
699.52	0.050
699.97	0.052
700.41	0.050
700.85	0.049
701.30	0.045
701.74	0.041
702.18	0.044
702.63	0.041
703.07	0.041
703.51	0.040
703.96	0.039
704.40	0.039
704.84	0.039
705.28	0.038
705.73	0.033
706.17	0.033
706.61	0.035
707.06	0.031
707.50	0.033
707.94	0.031
708.38	0.029
708.83	0.031
709.27	0.029
709.71	0.032
710.15	0.028
710.60	0.029
711.04	0.028
711.48	0.026
711.92	0.028
712.37	0.025
712.81	0.027
713.25	0.027
713.69	0.024
714.13	0.024
714.58	0.025
715.02	0.024
715.46	0.024
715.90	0.025
716.35	0.023
716.79	0.024
717.23	0.025
717.67	0.024
718.11	0.022
718.56	0.021
719.00	0.022
719.44	0.023
719.88	0.024
720.32	0.024
720.76	0.020
721.21	0.024
721.65	0.024
722.09	0.023
722.53	0.024
722.97	0.024
723.41	0.023
723.86	0.022
724.30	0.021
724.74	0.022
725.18	0.027
725.62	0.023
726.06	0.023
726.50	0.024
726.95	0.024
727.39	0.024
727.83	0.022
728.27	0.022
728.71	0.023
729.15	0.025
729.59	0.024
730.03	0.026
730.48	0.023
730.92	0.024
731.36	0.023
731.80	0.024
732.24	0.021
732.68	0.027
733.12	0.025
733.56	0.024
734.00	0.026
734.44	0.027
734.89	0.025
735.33	0.025
735.77	0.026
736.21	0.026
736.65	0.028
737.09	0.026
737.53	0.027
737.97	0.030
738.41	0.028
738.85	0.027
739.29	0.026
739.73	0.028
740.17	0.026
740.61	0.029
741.05	0.028
741.49	0.025
741.93	0.027
742.37	0.027
742.81	0.027
743.26	0.025
743.70	0.026
744.14	0.027
744.58	0.027
745.02	0.028
745.46	0.024
745.90	0.028
746.34	0.027
746.78	0.027
747.22	0.028
747.66	0.025
748.10	0.025
748.54	0.025
748.98	0.025
749.42	0.027
749.86	0.026
750.29	0.028
750.73	0.029
751.17	0.025
751.61	0.027
752.05	0.026
752.49	0.027
752.93	0.029
753.37	0.027
753.81	0.026
754.25	0.026
754.69	0.025
755.13	0.025
755.57	0.028
756.01	0.026
756.45	0.023
756.89	0.028
757.33	0.029
757.77	0.026
758.21	0.027
758.64	0.027
759.08	0.028
759.52	0.026
759.96	0.028
760.40	0.026
760.84	0.025
761.28	0.027
761.72	0.026
762.16	0.026
762.60	0.025
763.03	0.023
763.47	0.025
763.91	0.023
764.35	0.025
764.79	0.027
765.23	0.025
765.67	0.023
766.11	0.028
766.54	0.027
766.98	0.025
767.42	0.026
767.86	0.026
768.30	0.025
768.74	0.026
769.17	0.029
769.61	0.029
770.05	0.025
770.49	0.026
770.93	0.025
771.37	0.026
771.80	0.028
772.24	0.026
772.68	0.024
773.12	0.027
773.56	0.028
774.00	0.026
774.43	0.024
774.87	0.025
775.31	0.026
775.75	0.027
776.19	0.027
776.62	0.029
777.06	0.023
777.50	0.029
777.94	0.026
778.37	0.025
778.81	0.026
779.25	0.028
779.69	0.027
780.13	0.025
780.56	0.026
781.00	0.030
781.44	0.029
781.88	0.026
782.31	0.028
782.75	0.027
783.19	0.028
783.63	0.026
784.06	0.025
784.50	0.025
784.94	0.026
785.37	0.027
785.81	0.029
786.25	0.026
786.69	0.026
787.12	0.024
787.56	0.027
788.00	0.024
788.43	0.022
788.87	0.028
789.31	0.025
789.75	0.028
790.18	0.026
790.62	0.027
791.06	0.029
791.49	0.026
791.93	0.025
792.37	0.023
792.80	0.023
793.24	0.026
793.68	0.025
794.11	0.028
794.55	0.023
794.99	0.025
795.42	0.025
795.86	0.026
796.30	0.025
796.73	0.026
797.17	0.029
797.61	0.020
798.04	0.025
798.48	0.023
798.91	0.027
799.35	0.023
799.79	0.026
800.22	0.026
800.66	0.023
801.10	0.025
801.53	0.025
801.97	0.027
802.40	0.022
802.84	0.026
803.28	0.024
803.71	0.023
804.15	0.025
804.58	0.021
805.02	0.023
805.46	0.020
805.89	0.025
806.33	0.027
806.76	0.023
807.20	0.022
807.63	0.028
808.07	0.027
808.51	0.020
808.94	0.025
809.38	0.026
809.81	0.024
810.25	0.024
810.68	0.027
811.12	0.023
811.55	0.025
811.99	0.025
812.42	0.024
812.86	0.025
813.29	0.025
813.73	0.027
814.17	0.023
814.60	0.023
815.04	0.020
815.47	0.025
815.91	0.026
816.34	0.026
816.78	0.027
817.21	0.019
817.65	0.027
818.08	0.029
818.52	0.021
818.95	0.025
819.39	0.029
819.82	0.025
820.25	0.027
820.69	0.030
821.12	0.024
821.56	0.026
821.99	0.024
822.43	0.028
822.86	0.022
823.30	0.023
823.73	0.025
824.17	0.028
824.60	0.026
825.04	0.027
825.47	0.028
825.90	0.027
826.34	0.028
826.77	0.029
827.21	0.026
827.64	0.026
828.08	0.033
828.51	0.032
828.94	0.026
829.38	0.027
829.81	0.032
830.25	0.028
830.68	0.029
831.11	0.030
831.55	0.030
831.98	0.031
832.42	0.033
832.85	0.031
833.28	0.029
833.72	0.029
834.15	0.032
834.58	0.035
835.02	0.035
835.45	0.028
835.88	0.032
836.32	0.030
836.75	0.033
837.19	0.029
837.62	0.036
838.05	0.038
838.49	0.031
838.92	0.029
839.35	0.035
839.79	0.030
840.22	0.031
840.65	0.030
841.09	0.038
841.52	0.035
841.95	0.034
842.39	0.034
842.82	0.033
843.25	0.033
843.68	0.033
844.12	0.034
844.55	0.035
844.98	0.031
845.42	0.031
845.85	0.034
846.28	0.032
846.71	0.037
847.15	0.039
847.58	0.039
848.01	0.028
848.45	0.034
848.88	0.035
849.31	0.036
849.74	0.034
850.18	0.034
850.61	0.035
851.04	0.035
851.47	0.034
851.91	0.039
852.34	0.036
852.77	0.037
853.20	0.038
853.64	0.043
854.07	0.037
854.50	0.032
854.93	0.038
855.36	0.040
855.80	0.032
856.23	0.044
856.66	0.042
857.09	0.038
857.52	0.035
857.96	0.037
858.39	0.041
858.82	0.036
859.25	0.035
859.68	0.042
860.12	0.043
860.55	0.036
860.98	0.033
861.41	0.032
861.84	0.039
862.27	0.040
862.71	0.042
863.14	0.039
863.57	0.039
864.00	0.041
864.43	0.039
864.86	0.039
865.30	0.034
865.73	0.041
866.16	0.045
866.59	0.040
867.02	0.038
867.45	0.044
867.88	0.040
868.31	0.032
868.75	0.031
869.18	0.046
869.61	0.040
870.04	0.040
870.47	0.044
870.90	0.042
871.33	0.037
871.76	0.041
872.19	0.044
872.62	0.038
873.06	0.047
873.49	0.048
873.92	0.046
874.35	0.043
874.78	0.039
875.21	0.040
875.64	0.045
876.07	0.039
876.50	0.043
876.93	0.042
877.36	0.054
877.79	0.045
878.22	0.046
878.65	0.051
879.08	0.049
879.51	0.043
879.94	0.039
880.37	0.046
880.80	0.044
881.23	0.047
881.67	0.042
882.10	0.039
882.53	0.038
882.96	0.042
883.39	0.042
883.82	0.047
884.25	0.047
884.68	0.048
885.11	0.044
885.54	0.051
885.97	0.044
886.39	0.052
886.82	0.045
887.25	0.050
887.68	0.048
888.11	0.051
888.54	0.045
888.97	0.044
889.40	0.047
889.83	0.052
890.26	0.051
890.69	0.046
891.12	0.053
891.55	0.049
891.98	0.049
892.41	0.048
892.84	0.048
893.27	0.049
893.70	0.046
894.13	0.052
894.56	0.054
894.98	0.051
895.41	0.049
895.84	0.055
896.27	0.047
896.70	0.049
897.13	0.056
897.56	0.058
897.99	0.053
898.42	0.054
898.85	0.061
899.27	0.055
899.70	0.053
900.13	0.052
900.56	0.056
900.99	0.053
901.42	0.051
901.85	0.056
902.28	0.055
902.70	0.058
903.13	0.052
903.56	0.052
903.99	0.054
904.42	0.055
904.85	0.050
905.27	0.059
905.70	0.056
906.13	0.058
906.56	0.060
906.99	0.060
907.42	0.054
907.84	0.052
908.27	0.059
908.70	0.055
909.13	0.055
909.56	0.053
909.98	0.056
910.41	0.056
910.84	0.048
911.27	0.052
911.70	0.054
912.12	0.053
912.55	0.057
912.98	0.057
913.41	0.055
913.84	0.053
914.26	0.055
914.69	0.060
915.12	0.056
915.55	0.057
915.97	0.062
916.40	0.055
916.83	0.052
917.26	0.052
917.68	0.054
918.11	0.059
918.54	0.058
918.97	0.054
919.39	0.057
919.82	0.056
920.25	0.057
920.67	0.057
921.10	0.054
921.53	0.056
921.96	0.057
922.38	0.060
922.81	0.063
923.24	0.062
923.66	0.059
924.09	0.060
924.52	0.059
924.94	0.065
925.37	0.062
925.80	0.064
926.22	0.064
926.65	0.070
927.08	0.062
927.50	0.069
927.93	0.069
928.36	0.069
928.78	0.069
929.21	0.072
929.64	0.076
930.06	0.073
930.49	0.075
930.92	0.073
931.34	0.074
931.77	0.077
932.20	0.076
932.62	0.078
933.05	0.079
933.47	0.084
933.90	0.084
934.33	0.078
934.75	0.080
935.18	0.084
935.61	0.085
936.03	0.087
936.46	0.086
936.88	0.094
937.31	0.094
937.73	0.095
938.16	0.092
938.59	0.101
939.01	0.100
939.44	0.100
939.86	0.098
940.29	0.100
940.71	0.108
941.14	0.107
941.57	0.109
941.99	0.113
942.42	0.114
942.84	0.112
943.27	0.106
943.69	0.110
944.12	0.120
944.54	0.123
944.97	0.121
945.39	0.127
945.82	0.133
946.24	0.124
946.67	0.129
947.09	0.136
947.52	0.132
947.94	0.135
948.37	0.146
948.79	0.139
949.22	0.153
949.64	0.147
950.07	0.148
950.49	0.146
950.92	0.155
951.34	0.160
951.77	0.163
952.19	0.164
952.62	0.166
953.04	0.174
953.47	0.171
953.89	0.166
954.32	0.176
954.74	0.181
955.17	0.185
955.59	0.182
956.01	0.184
956.44	0.191
956.86	0.187
957.29	0.196
957.71	0.204
958.14	0.203
958.56	0.200
958.98	0.208
959.41	0.207
959.83	0.202
960.26	0.207
960.68	0.214
961.10	0.211
961.53	0.218
961.95	0.219
962.38	0.227
962.80	0.216
963.22	0.216
963.65	0.223
964.07	0.217
964.50	0.218
964.92	0.220
965.34	0.214
965.77	0.228
966.19	0.216
966.61	0.222
967.04	0.219
967.46	0.228
967.88	0.219
968.31	0.228
968.73	0.231
969.15	0.223
969.58	0.228
970.00	0.228
970.42	0.227
970.85	0.226
971.27	0.228
971.69	0.233
972.12	0.227
972.54	0.229
972.96	0.236
973.39	0.227
973.81	0.227
974.23	0.229
974.65	0.236
975.08	0.237
975.50	0.233
975.92	0.236
976.35	0.236
976.77	0.232
977.19	0.228
977.61	0.233
978.04	0.241
978.46	0.234
978.88	0.225
979.30	0.236
979.73	0.227
980.15	0.235
980.57	0.232
980.99	0.234
981.42	0.226
981.84	0.231
982.26	0.227
982.68	0.228
983.11	0.227
983.53	0.228
983.95	0.228
984.37	0.222
984.79	0.229
985.22	0.231
985.64	0.217
986.06	0.222
986.48	0.217
986.90	0.223
987.33	0.225
987.75	0.227
988.17	0.229
988.59	0.227
989.01	0.222
989.43	0.225
989.86	0.223
990.28	0.222
990.70	0.222
991.12	0.231
991.54	0.222
991.96	0.217
992.39	0.218
992.81	0.219
993.23	0.222
993.65	0.210
994.07	0.215
994.49	0.211
994.91	0.216
995.34	0.211
995.76	0.209
996.18	0.211
996.60	0.217
997.02	0.216
997.44	0.210
997.86	0.209
998.28	0.201
998.70	0.210
999.12	0.202
999.55	0.212
999.97	0.202
1000.39	0.195
1000.81	0.205
1001.23	0.202
1001.65	0.207
1002.07	0.202
1002.49	0.207
1002.91	0.201
1003.33	0.207
1003.75	0.197
1004.17	0.197
1004.59	0.199
1005.01	0.206
1005.43	0.193
1005.85	0.191
1006.28	0.196
1006.70	0.194
1007.12	0.195
1007.54	0.190
1007.96	0.188
1008.38	0.185
1008.80	0.191
1009.22	0.183
1009.64	0.185
1010.06	0.191
1010.48	0.185
1010.90	0.177
1011.32	0.182
1011.74	0.178
1012.16	0.173
1012.58	0.172
1013.00	0.166
1013.42	0.173
1013.84	0.170
1014.26	0.173
1014.67	0.177
1015.09	0.166
1015.51	0.181
1015.93	0.183
1016.35	0.174
1016.77	0.169
1017.19	0.169
1017.61	0.182
1018.03	0.167
1018.45	0.154
1018.87	0.164
1019.29	0.154
1019.71	0.165
1020.13	0.158
1020.55	0.158
1020.97	0.154
1021.38	0.147
1021.80	0.163
1022.22	0.157
1022.64	0.151
1023.06	0.139
1023.48	0.146
1023.90	0.158
1024.32	0.148
1024.74	0.149
1025.15	0.146
1025.57	0.145
1025.99	0.147
1026.41	0.143
1026.83	0.149
1027.25	0.154
1027.67	0.142
1028.08	0.147
1028.50	0.136
1028.92	0.145
1029.34	0.146
1029.76	0.139
1030.18	0.124
1030.60	0.137
1031.01	0.141
1031.43	0.128
1031.85	0.120
1032.27	0.134
1032.69	0.136
1033.10	0.121
1033.52	0.136
1033.94	0.126
1034.36	0.143
1034.78	0.123
1035.19	0.113
1035.61	0.125
1036.03	0.124
1036.45	0.139
1036.87	0.138
1037.28	0.110
1037.70	0.113
1038.12	0.107
1038.54	0.117
1038.95	0.115
1039.37	0.135
1039.79	0.117
1040.21	0.118
1040.62	0.110
1041.04	0.122
1041.46	0.112
1041.88	0.132
1042.29	0.093
1042.71	0.113
1043.13	0.081
1043.55	0.096
1043.96	0.107
1044.38	0.105
1044.80	0.106
1045.21	0.107
1045.63	0.101
1046.05	0.108
1046.47	0.102
1046.88	0.094
1047.30	0.105
1047.72	0.103
1048.13	0.100
1048.55	0.102
1048.97	0.117
1049.38	0.096
1049.80	0.099
1050.22	0.086
1050.63	0.102
1051.05	0.114
1051.47	0.072
1051.88	0.087
1052.30	0.075
1052.72	0.086
1053.13	0.099
1053.55	0.111
1053.97	0.126
1054.38	0.079
1054.80	0.094
1055.21	0.113
1055.63	0.097
1056.05	0.110
1056.46	0.125
1056.88	0.084
1057.29	0.075
1057.71	0.114
1058.13	0.112
1058.54	0.105
1058.96	0.096
1059.37	0.123
1059.79	0.086
1060.21	0.069
1060.62	0.083
1061.04	0.138
1061.45	0.066
1061.87	0.088
1062.28	0.083
1062.70	0.115
1063.12	0.118
1063.53	0.118
1063.95	0.088
1064.36	0.087
1064.78	0.098
1065.19	0.098
1065.61	0.133
1066.02	0.076
1066.44	0.025
1066.85	0.079
1067.27	0.182
1067.68	0.142
1068.10	0.104
1068.51	0.150
1068.93	0.157
1069.35	0.080
1069.76	0.108
1070.17	0.060
1070.59	0.123
1071.00	0.003
1071.42	0.111
1071.83	0.136
1072.25	0.136
1072.66	0.147
1073.08	0.142
1073.49	0.152
1073.91	0.219
1074.32	0.098
1074.74	0.167
1075.15	0.140
1075.57	0.095
1075.98	0.247
1076.40	0.033
1076.81	0.075
1077.22	0.129
1077.64	0.190
1078.05	0.205
1078.47	-0.095
1078.88	0.248
1079.30	0.085
1079.71	0.107
1080.12	0.099
1080.54	0.124
1080.95	0.119
1081.37	-0.000
1081.78	0.122
1082.19	0.166
1082.61	0.175
1083.02	0.128
1083.44	0.112
1083.85	0.327
1084.26	0.046
1084.68	0.075
1085.09	0.166
1085.50	0.465
1085.92	0.008
1086.33	0.022
1086.74	0.203
1087.16	0.284
1087.57	0.550
1087.98	0.276
1088.40	0.408
1088.81	0.119
1089.22	0.043
1089.64	-0.042
1090.05	-0.084
1090.46	-0.062
1090.88	0.169
1091.29	0.232
1091.70	0.408
1092.12	0.528
1092.53	0.207
1092.94	0.537
1093.36	0.544
1093.77	0.522
1094.18	0.225
1094.59	0.167
1095.01	0.109
1095.42	0.551
1095.83	0.591
1096.25	0.467
1096.66	0.139
1097.07	0.081
1097.48	0.373
1097.90	0.080
1098.31	0.430
1098.72	0.232
1099.13	0.208
>>>>>End Processed Spectral Data<<<<<
