SpectraSuite Data File
++++++++++++++++++++++++++++++++++++
Date: Tue Jul 11 16:21:32 CEST 2017
User: IPCE
Dark Spectrum Present: Yes
Reference Spectrum Present: Yes
Number of Sampled Component Spectra: 1
Spectrometers: HR+C0708
Integration Time (usec): 1000 (HR+C0708)
Spectra Averaged: 10 (HR+C0708)
Boxcar Smoothing: 0 (HR+C0708)
Correct for Electrical Dark: No (HR+C0708)
Strobe/Lamp Enabled: No (HR+C0708)
Correct for Detector Non-linearity: No (HR+C0708)
Correct for Stray Light: No (HR+C0708)
Number of Pixels in Processed Spectrum: 2048
>>>>>Begin Processed Spectral Data<<<<<
188.76	-0.075
189.23	-0.378
189.70	0.735
190.17	0.270
190.64	-0.000
191.12	0.254
191.59	0.488
192.06	-0.000
192.53	0.503
193.01	0.022
193.48	-0.612
193.95	0.045
194.42	-0.022
194.90	0.099
195.37	0.127
195.84	-0.174
196.31	0.490
196.78	0.279
197.26	0.157
197.73	0.355
198.20	0.316
198.67	0.315
199.14	-0.085
199.62	0.204
200.09	-0.000
200.56	0.313
201.03	0.193
201.50	0.298
201.97	0.213
202.45	0.400
202.92	0.243
203.39	0.232
203.86	0.306
204.33	0.351
204.80	0.260
205.28	0.347
205.75	0.252
206.22	0.216
206.69	0.446
207.16	0.214
207.63	0.349
208.11	0.284
208.58	0.187
209.05	0.406
209.52	0.376
209.99	0.204
210.46	0.234
210.93	0.252
211.41	0.190
211.88	0.275
212.35	0.322
212.82	0.164
213.29	0.244
213.76	0.265
214.23	0.516
214.70	0.262
215.18	0.243
215.65	0.283
216.12	0.256
216.59	0.208
217.06	0.367
217.53	0.347
218.00	0.309
218.47	0.447
218.94	0.216
219.41	0.368
219.89	0.381
220.36	0.293
220.83	0.406
221.30	0.303
221.77	0.242
222.24	0.502
222.71	0.510
223.18	0.362
223.65	0.375
224.12	0.492
224.59	0.499
225.06	0.464
225.54	0.452
226.01	0.564
226.48	0.540
226.95	0.518
227.42	0.786
227.89	0.777
228.36	0.754
228.83	0.876
229.30	0.883
229.77	1.069
230.24	1.038
230.71	1.123
231.18	1.049
231.65	1.230
232.12	1.279
232.59	1.221
233.06	1.425
233.53	1.406
234.00	1.474
234.47	1.445
234.94	1.485
235.41	1.637
235.88	1.575
236.35	1.552
236.82	1.622
237.29	1.613
237.76	1.778
238.23	1.787
238.70	1.779
239.17	1.915
239.64	1.945
240.11	1.967
240.58	1.997
241.05	1.966
241.52	1.961
241.99	2.000
242.46	1.879
242.93	2.091
243.40	2.000
243.87	2.123
244.34	2.185
244.81	2.099
245.28	2.042
245.75	2.249
246.22	2.112
246.69	2.092
247.16	2.219
247.63	2.182
248.10	2.280
248.57	2.109
249.04	2.132
249.51	2.205
249.98	2.098
250.45	2.219
250.92	2.155
251.39	2.047
251.85	1.955
252.32	1.902
252.79	1.761
253.26	1.715
253.73	1.648
254.20	1.534
254.67	1.454
255.14	1.399
255.61	1.328
256.08	1.287
256.55	1.213
257.02	1.164
257.49	1.130
257.95	1.089
258.42	1.051
258.89	1.016
259.36	0.988
259.83	0.958
260.30	0.939
260.77	0.913
261.24	0.889
261.71	0.865
262.17	0.848
262.64	0.835
263.11	0.808
263.58	0.800
264.05	0.774
264.52	0.764
264.99	0.752
265.46	0.735
265.92	0.721
266.39	0.714
266.86	0.696
267.33	0.685
267.80	0.678
268.27	0.666
268.74	0.656
269.20	0.647
269.67	0.640
270.14	0.629
270.61	0.617
271.08	0.609
271.55	0.607
272.01	0.593
272.48	0.587
272.95	0.581
273.42	0.571
273.89	0.567
274.36	0.558
274.82	0.552
275.29	0.551
275.76	0.545
276.23	0.540
276.70	0.537
277.16	0.531
277.63	0.528
278.10	0.522
278.57	0.519
279.04	0.515
279.50	0.510
279.97	0.507
280.44	0.508
280.91	0.503
281.38	0.498
281.84	0.499
282.31	0.499
282.78	0.497
283.25	0.495
283.72	0.497
284.18	0.491
284.65	0.490
285.12	0.489
285.59	0.485
286.05	0.486
286.52	0.487
286.99	0.483
287.46	0.487
287.92	0.483
288.39	0.485
288.86	0.482
289.33	0.482
289.79	0.478
290.26	0.477
290.73	0.477
291.20	0.471
291.66	0.471
292.13	0.468
292.60	0.463
293.07	0.460
293.53	0.457
294.00	0.451
294.47	0.444
294.93	0.439
295.40	0.434
295.87	0.428
296.34	0.420
296.80	0.413
297.27	0.409
297.74	0.404
298.20	0.394
298.67	0.388
299.14	0.382
299.60	0.371
300.07	0.366
300.54	0.358
301.01	0.351
301.47	0.347
301.94	0.339
302.41	0.331
302.87	0.324
303.34	0.317
303.81	0.313
304.27	0.310
304.74	0.300
305.21	0.298
305.67	0.289
306.14	0.285
306.61	0.279
307.07	0.276
307.54	0.270
308.01	0.263
308.47	0.261
308.94	0.258
309.40	0.254
309.87	0.251
310.34	0.248
310.80	0.246
311.27	0.240
311.74	0.239
312.20	0.234
312.67	0.236
313.13	0.234
313.60	0.228
314.07	0.227
314.53	0.224
315.00	0.225
315.47	0.222
315.93	0.218
316.40	0.221
316.86	0.219
317.33	0.218
317.80	0.212
318.26	0.210
318.73	0.210
319.19	0.207
319.66	0.210
320.13	0.206
320.59	0.206
321.06	0.204
321.52	0.203
321.99	0.205
322.45	0.200
322.92	0.197
323.39	0.195
323.85	0.198
324.32	0.197
324.78	0.193
325.25	0.191
325.71	0.191
326.18	0.185
326.64	0.187
327.11	0.186
327.58	0.186
328.04	0.184
328.51	0.181
328.97	0.182
329.44	0.181
329.90	0.179
330.37	0.179
330.83	0.177
331.30	0.175
331.76	0.175
332.23	0.172
332.69	0.170
333.16	0.168
333.62	0.165
334.09	0.164
334.56	0.164
335.02	0.161
335.49	0.159
335.95	0.157
336.42	0.155
336.88	0.153
337.35	0.152
337.81	0.154
338.28	0.151
338.74	0.150
339.20	0.148
339.67	0.151
340.13	0.147
340.60	0.146
341.06	0.144
341.53	0.140
341.99	0.145
342.46	0.142
342.92	0.141
343.39	0.141
343.85	0.137
344.32	0.138
344.78	0.137
345.25	0.135
345.71	0.138
346.17	0.136
346.64	0.135
347.10	0.135
347.57	0.133
348.03	0.131
348.50	0.129
348.96	0.129
349.43	0.132
349.89	0.129
350.35	0.128
350.82	0.130
351.28	0.127
351.75	0.127
352.21	0.131
352.67	0.122
353.14	0.122
353.60	0.120
354.07	0.114
354.53	0.120
355.00	0.115
355.46	0.115
355.92	0.115
356.39	0.115
356.85	0.108
357.31	0.113
357.78	0.115
358.24	0.109
358.71	0.109
359.17	0.109
359.63	0.104
360.10	0.103
360.56	0.101
361.03	0.100
361.49	0.099
361.95	0.099
362.42	0.094
362.88	0.097
363.34	0.093
363.81	0.092
364.27	0.091
364.73	0.089
365.20	0.087
365.66	0.085
366.12	0.083
366.59	0.085
367.05	0.085
367.51	0.081
367.98	0.079
368.44	0.081
368.90	0.079
369.37	0.082
369.83	0.076
370.29	0.076
370.76	0.080
371.22	0.078
371.68	0.079
372.15	0.076
372.61	0.074
373.07	0.076
373.54	0.077
374.00	0.073
374.46	0.075
374.92	0.073
375.39	0.077
375.85	0.078
376.31	0.073
376.78	0.075
377.24	0.072
377.70	0.072
378.16	0.073
378.63	0.075
379.09	0.073
379.55	0.073
380.01	0.071
380.48	0.072
380.94	0.073
381.40	0.069
381.87	0.069
382.33	0.069
382.79	0.070
383.25	0.070
383.72	0.072
384.18	0.073
384.64	0.067
385.10	0.068
385.56	0.070
386.03	0.067
386.49	0.068
386.95	0.069
387.41	0.066
387.88	0.067
388.34	0.068
388.80	0.068
389.26	0.067
389.72	0.069
390.19	0.068
390.65	0.065
391.11	0.070
391.57	0.068
392.04	0.067
392.50	0.064
392.96	0.067
393.42	0.065
393.88	0.069
394.34	0.067
394.81	0.067
395.27	0.064
395.73	0.063
396.19	0.065
396.65	0.066
397.12	0.064
397.58	0.062
398.04	0.066
398.50	0.064
398.96	0.064
399.42	0.062
399.89	0.063
400.35	0.063
400.81	0.063
401.27	0.066
401.73	0.063
402.19	0.061
402.65	0.060
403.12	0.062
403.58	0.060
404.04	0.059
404.50	0.061
404.96	0.061
405.42	0.061
405.88	0.060
406.34	0.061
406.81	0.061
407.27	0.060
407.73	0.058
408.19	0.057
408.65	0.058
409.11	0.059
409.57	0.058
410.03	0.060
410.49	0.059
410.96	0.058
411.42	0.057
411.88	0.057
412.34	0.056
412.80	0.059
413.26	0.060
413.72	0.056
414.18	0.059
414.64	0.055
415.10	0.055
415.56	0.059
416.02	0.053
416.48	0.055
416.95	0.055
417.41	0.055
417.87	0.053
418.33	0.054
418.79	0.056
419.25	0.056
419.71	0.054
420.17	0.054
420.63	0.054
421.09	0.054
421.55	0.053
422.01	0.050
422.47	0.053
422.93	0.055
423.39	0.057
423.85	0.056
424.31	0.053
424.77	0.052
425.23	0.052
425.69	0.054
426.15	0.054
426.61	0.055
427.07	0.054
427.53	0.054
427.99	0.055
428.45	0.054
428.91	0.053
429.37	0.052
429.83	0.053
430.29	0.054
430.75	0.052
431.21	0.052
431.67	0.055
432.13	0.051
432.59	0.053
433.05	0.050
433.51	0.051
433.97	0.056
434.43	0.052
434.89	0.052
435.35	0.051
435.81	0.050
436.27	0.050
436.73	0.050
437.19	0.051
437.65	0.048
438.11	0.051
438.57	0.050
439.03	0.049
439.48	0.051
439.94	0.049
440.40	0.050
440.86	0.051
441.32	0.048
441.78	0.053
442.24	0.047
442.70	0.047
443.16	0.050
443.62	0.048
444.08	0.050
444.54	0.054
444.99	0.050
445.45	0.049
445.91	0.050
446.37	0.048
446.83	0.050
447.29	0.050
447.75	0.049
448.21	0.050
448.67	0.049
449.12	0.047
449.58	0.046
450.04	0.047
450.50	0.046
450.96	0.044
451.42	0.049
451.88	0.051
452.34	0.047
452.79	0.047
453.25	0.051
453.71	0.048
454.17	0.049
454.63	0.050
455.09	0.048
455.55	0.048
456.00	0.048
456.46	0.047
456.92	0.050
457.38	0.051
457.84	0.047
458.30	0.051
458.75	0.048
459.21	0.048
459.67	0.049
460.13	0.050
460.59	0.052
461.04	0.047
461.50	0.048
461.96	0.047
462.42	0.050
462.88	0.047
463.33	0.049
463.79	0.050
464.25	0.046
464.71	0.048
465.17	0.048
465.62	0.049
466.08	0.047
466.54	0.048
467.00	0.051
467.46	0.048
467.91	0.049
468.37	0.048
468.83	0.049
469.29	0.049
469.74	0.051
470.20	0.050
470.66	0.049
471.12	0.051
471.57	0.050
472.03	0.049
472.49	0.052
472.95	0.050
473.40	0.050
473.86	0.048
474.32	0.050
474.78	0.049
475.23	0.049
475.69	0.051
476.15	0.051
476.60	0.048
477.06	0.049
477.52	0.051
477.98	0.052
478.43	0.052
478.89	0.050
479.35	0.050
479.80	0.052
480.26	0.048
480.72	0.050
481.18	0.049
481.63	0.049
482.09	0.050
482.55	0.049
483.00	0.050
483.46	0.050
483.92	0.047
484.37	0.051
484.83	0.049
485.29	0.051
485.74	0.050
486.20	0.048
486.66	0.050
487.11	0.052
487.57	0.053
488.03	0.051
488.48	0.050
488.94	0.049
489.40	0.050
489.85	0.051
490.31	0.050
490.77	0.054
491.22	0.048
491.68	0.052
492.13	0.050
492.59	0.050
493.05	0.051
493.50	0.049
493.96	0.049
494.42	0.050
494.87	0.050
495.33	0.051
495.78	0.048
496.24	0.048
496.70	0.051
497.15	0.052
497.61	0.050
498.06	0.051
498.52	0.051
498.98	0.052
499.43	0.049
499.89	0.049
500.34	0.049
500.80	0.050
501.25	0.049
501.71	0.050
502.17	0.050
502.62	0.050
503.08	0.048
503.53	0.051
503.99	0.050
504.44	0.051
504.90	0.049
505.36	0.049
505.81	0.048
506.27	0.049
506.72	0.049
507.18	0.049
507.63	0.048
508.09	0.049
508.54	0.049
509.00	0.051
509.45	0.051
509.91	0.050
510.36	0.048
510.82	0.049
511.27	0.048
511.73	0.048
512.19	0.048
512.64	0.050
513.10	0.050
513.55	0.050
514.01	0.049
514.46	0.049
514.92	0.049
515.37	0.048
515.83	0.048
516.28	0.050
516.73	0.050
517.19	0.047
517.64	0.048
518.10	0.048
518.55	0.049
519.01	0.046
519.46	0.048
519.92	0.046
520.37	0.049
520.83	0.049
521.28	0.048
521.74	0.048
522.19	0.049
522.65	0.049
523.10	0.047
523.55	0.048
524.01	0.049
524.46	0.049
524.92	0.048
525.37	0.050
525.83	0.048
526.28	0.048
526.73	0.050
527.19	0.050
527.64	0.052
528.10	0.051
528.55	0.049
529.01	0.052
529.46	0.052
529.91	0.049
530.37	0.048
530.82	0.049
531.28	0.051
531.73	0.048
532.18	0.051
532.64	0.049
533.09	0.053
533.54	0.050
534.00	0.050
534.45	0.052
534.91	0.053
535.36	0.052
535.81	0.049
536.27	0.052
536.72	0.050
537.17	0.051
537.63	0.051
538.08	0.054
538.54	0.051
538.99	0.054
539.44	0.054
539.90	0.053
540.35	0.052
540.80	0.053
541.26	0.054
541.71	0.053
542.16	0.053
542.62	0.054
543.07	0.054
543.52	0.053
543.98	0.054
544.43	0.055
544.88	0.056
545.34	0.058
545.79	0.057
546.24	0.057
546.69	0.055
547.15	0.055
547.60	0.059
548.05	0.059
548.51	0.057
548.96	0.059
549.41	0.059
549.86	0.060
550.32	0.059
550.77	0.061
551.22	0.063
551.68	0.060
552.13	0.059
552.58	0.062
553.03	0.062
553.49	0.063
553.94	0.061
554.39	0.064
554.84	0.062
555.30	0.063
555.75	0.065
556.20	0.066
556.65	0.066
557.11	0.065
557.56	0.066
558.01	0.066
558.46	0.068
558.92	0.068
559.37	0.069
559.82	0.070
560.27	0.071
560.72	0.068
561.18	0.069
561.63	0.071
562.08	0.072
562.53	0.072
562.99	0.072
563.44	0.071
563.89	0.072
564.34	0.075
564.79	0.075
565.25	0.077
565.70	0.074
566.15	0.077
566.60	0.076
567.05	0.078
567.50	0.080
567.96	0.080
568.41	0.082
568.86	0.079
569.31	0.082
569.76	0.082
570.21	0.080
570.67	0.081
571.12	0.083
571.57	0.083
572.02	0.086
572.47	0.085
572.92	0.086
573.37	0.085
573.83	0.087
574.28	0.089
574.73	0.087
575.18	0.089
575.63	0.092
576.08	0.092
576.53	0.093
576.98	0.092
577.44	0.093
577.89	0.094
578.34	0.095
578.79	0.099
579.24	0.097
579.69	0.100
580.14	0.100
580.59	0.101
581.04	0.103
581.49	0.103
581.95	0.105
582.40	0.104
582.85	0.104
583.30	0.108
583.75	0.108
584.20	0.110
584.65	0.108
585.10	0.111
585.55	0.113
586.00	0.117
586.45	0.116
586.90	0.118
587.35	0.118
587.80	0.120
588.25	0.120
588.71	0.120
589.16	0.123
589.61	0.128
590.06	0.128
590.51	0.129
590.96	0.128
591.41	0.132
591.86	0.134
592.31	0.136
592.76	0.136
593.21	0.137
593.66	0.139
594.11	0.141
594.56	0.144
595.01	0.143
595.46	0.147
595.91	0.146
596.36	0.149
596.81	0.153
597.26	0.153
597.71	0.155
598.16	0.157
598.61	0.156
599.06	0.160
599.51	0.158
599.96	0.162
600.41	0.164
600.86	0.166
601.31	0.167
601.76	0.167
602.21	0.170
602.65	0.173
603.10	0.173
603.55	0.175
604.00	0.178
604.45	0.177
604.90	0.180
605.35	0.181
605.80	0.180
606.25	0.182
606.70	0.187
607.15	0.188
607.60	0.188
608.05	0.187
608.50	0.190
608.95	0.191
609.39	0.192
609.84	0.195
610.29	0.191
610.74	0.195
611.19	0.196
611.64	0.197
612.09	0.198
612.54	0.198
612.99	0.201
613.44	0.201
613.88	0.205
614.33	0.200
614.78	0.202
615.23	0.202
615.68	0.203
616.13	0.206
616.58	0.204
617.03	0.203
617.47	0.207
617.92	0.207
618.37	0.206
618.82	0.208
619.27	0.208
619.72	0.209
620.17	0.209
620.61	0.210
621.06	0.214
621.51	0.211
621.96	0.213
622.41	0.214
622.86	0.212
623.30	0.214
623.75	0.214
624.20	0.218
624.65	0.220
625.10	0.217
625.54	0.220
625.99	0.222
626.44	0.222
626.89	0.221
627.34	0.223
627.78	0.224
628.23	0.224
628.68	0.226
629.13	0.226
629.58	0.224
630.02	0.231
630.47	0.230
630.92	0.232
631.37	0.235
631.81	0.236
632.26	0.236
632.71	0.239
633.16	0.239
633.61	0.241
634.05	0.244
634.50	0.245
634.95	0.244
635.40	0.246
635.84	0.250
636.29	0.251
636.74	0.252
637.18	0.256
637.63	0.258
638.08	0.257
638.53	0.262
638.97	0.262
639.42	0.266
639.87	0.269
640.32	0.272
640.76	0.273
641.21	0.275
641.66	0.277
642.10	0.281
642.55	0.283
643.00	0.285
643.44	0.285
643.89	0.290
644.34	0.295
644.79	0.295
645.23	0.296
645.68	0.301
646.13	0.303
646.57	0.305
647.02	0.308
647.47	0.309
647.91	0.312
648.36	0.317
648.81	0.322
649.25	0.322
649.70	0.323
650.15	0.326
650.59	0.326
651.04	0.329
651.48	0.330
651.93	0.333
652.38	0.337
652.82	0.340
653.27	0.341
653.72	0.344
654.16	0.344
654.61	0.345
655.06	0.349
655.50	0.348
655.95	0.349
656.39	0.351
656.84	0.355
657.29	0.354
657.73	0.357
658.18	0.356
658.62	0.360
659.07	0.362
659.52	0.363
659.96	0.363
660.41	0.364
660.85	0.360
661.30	0.364
661.74	0.367
662.19	0.368
662.64	0.364
663.08	0.366
663.53	0.369
663.97	0.366
664.42	0.367
664.86	0.367
665.31	0.368
665.75	0.364
666.20	0.363
666.65	0.362
667.09	0.361
667.54	0.358
667.98	0.359
668.43	0.356
668.87	0.355
669.32	0.352
669.76	0.350
670.21	0.346
670.65	0.343
671.10	0.339
671.54	0.336
671.99	0.333
672.43	0.325
672.88	0.322
673.32	0.319
673.77	0.314
674.21	0.309
674.66	0.304
675.10	0.296
675.55	0.294
675.99	0.287
676.44	0.283
676.88	0.274
677.33	0.267
677.77	0.259
678.22	0.256
678.66	0.248
679.11	0.240
679.55	0.234
679.99	0.229
680.44	0.223
680.88	0.216
681.33	0.209
681.77	0.202
682.22	0.197
682.66	0.188
683.11	0.182
683.55	0.177
683.99	0.171
684.44	0.166
684.88	0.160
685.33	0.154
685.77	0.148
686.21	0.145
686.66	0.138
687.10	0.134
687.55	0.128
687.99	0.124
688.44	0.119
688.88	0.115
689.32	0.112
689.77	0.106
690.21	0.102
690.65	0.098
691.10	0.094
691.54	0.092
691.99	0.089
692.43	0.086
692.87	0.081
693.32	0.078
693.76	0.077
694.20	0.074
694.65	0.072
695.09	0.069
695.53	0.067
695.98	0.066
696.42	0.061
696.86	0.060
697.31	0.059
697.75	0.057
698.19	0.054
698.64	0.054
699.08	0.053
699.52	0.051
699.97	0.050
700.41	0.051
700.85	0.047
701.30	0.046
701.74	0.041
702.18	0.042
702.63	0.040
703.07	0.041
703.51	0.039
703.96	0.038
704.40	0.041
704.84	0.038
705.28	0.039
705.73	0.036
706.17	0.034
706.61	0.034
707.06	0.034
707.50	0.034
707.94	0.034
708.38	0.031
708.83	0.032
709.27	0.031
709.71	0.033
710.15	0.029
710.60	0.032
711.04	0.030
711.48	0.029
711.92	0.030
712.37	0.029
712.81	0.031
713.25	0.028
713.69	0.028
714.13	0.027
714.58	0.029
715.02	0.027
715.46	0.025
715.90	0.028
716.35	0.027
716.79	0.027
717.23	0.027
717.67	0.027
718.11	0.026
718.56	0.027
719.00	0.027
719.44	0.026
719.88	0.028
720.32	0.028
720.76	0.027
721.21	0.029
721.65	0.028
722.09	0.027
722.53	0.027
722.97	0.026
723.41	0.026
723.86	0.026
724.30	0.030
724.74	0.026
725.18	0.028
725.62	0.027
726.06	0.026
726.50	0.028
726.95	0.027
727.39	0.027
727.83	0.027
728.27	0.026
728.71	0.027
729.15	0.029
729.59	0.029
730.03	0.027
730.48	0.028
730.92	0.027
731.36	0.028
731.80	0.029
732.24	0.026
732.68	0.030
733.12	0.028
733.56	0.027
734.00	0.029
734.44	0.029
734.89	0.028
735.33	0.030
735.77	0.030
736.21	0.029
736.65	0.032
737.09	0.031
737.53	0.030
737.97	0.034
738.41	0.030
738.85	0.029
739.29	0.030
739.73	0.032
740.17	0.030
740.61	0.033
741.05	0.033
741.49	0.029
741.93	0.030
742.37	0.029
742.81	0.030
743.26	0.029
743.70	0.030
744.14	0.032
744.58	0.030
745.02	0.030
745.46	0.030
745.90	0.029
746.34	0.032
746.78	0.033
747.22	0.032
747.66	0.031
748.10	0.029
748.54	0.031
748.98	0.029
749.42	0.031
749.86	0.031
750.29	0.031
750.73	0.029
751.17	0.028
751.61	0.031
752.05	0.029
752.49	0.031
752.93	0.031
753.37	0.031
753.81	0.030
754.25	0.027
754.69	0.032
755.13	0.030
755.57	0.030
756.01	0.029
756.45	0.030
756.89	0.030
757.33	0.032
757.77	0.027
758.21	0.031
758.64	0.032
759.08	0.030
759.52	0.032
759.96	0.032
760.40	0.028
760.84	0.028
761.28	0.031
761.72	0.030
762.16	0.030
762.60	0.027
763.03	0.031
763.47	0.027
763.91	0.027
764.35	0.025
764.79	0.031
765.23	0.028
765.67	0.028
766.11	0.031
766.54	0.030
766.98	0.029
767.42	0.029
767.86	0.029
768.30	0.028
768.74	0.028
769.17	0.033
769.61	0.031
770.05	0.030
770.49	0.026
770.93	0.030
771.37	0.029
771.80	0.029
772.24	0.029
772.68	0.030
773.12	0.028
773.56	0.029
774.00	0.030
774.43	0.030
774.87	0.029
775.31	0.030
775.75	0.030
776.19	0.029
776.62	0.031
777.06	0.028
777.50	0.030
777.94	0.029
778.37	0.028
778.81	0.032
779.25	0.029
779.69	0.029
780.13	0.030
780.56	0.031
781.00	0.033
781.44	0.033
781.88	0.032
782.31	0.030
782.75	0.030
783.19	0.031
783.63	0.035
784.06	0.028
784.50	0.031
784.94	0.031
785.37	0.031
785.81	0.028
786.25	0.028
786.69	0.028
787.12	0.028
787.56	0.031
788.00	0.026
788.43	0.025
788.87	0.030
789.31	0.027
789.75	0.032
790.18	0.029
790.62	0.030
791.06	0.030
791.49	0.031
791.93	0.028
792.37	0.026
792.80	0.028
793.24	0.032
793.68	0.026
794.11	0.031
794.55	0.027
794.99	0.027
795.42	0.029
795.86	0.027
796.30	0.031
796.73	0.029
797.17	0.032
797.61	0.028
798.04	0.025
798.48	0.031
798.91	0.028
799.35	0.030
799.79	0.029
800.22	0.025
800.66	0.027
801.10	0.031
801.53	0.028
801.97	0.025
802.40	0.030
802.84	0.028
803.28	0.025
803.71	0.028
804.15	0.030
804.58	0.025
805.02	0.029
805.46	0.028
805.89	0.025
806.33	0.029
806.76	0.030
807.20	0.030
807.63	0.032
808.07	0.030
808.51	0.026
808.94	0.031
809.38	0.029
809.81	0.029
810.25	0.028
810.68	0.031
811.12	0.029
811.55	0.028
811.99	0.028
812.42	0.028
812.86	0.028
813.29	0.027
813.73	0.029
814.17	0.032
814.60	0.025
815.04	0.024
815.47	0.029
815.91	0.029
816.34	0.027
816.78	0.031
817.21	0.024
817.65	0.031
818.08	0.035
818.52	0.026
818.95	0.028
819.39	0.032
819.82	0.033
820.25	0.029
820.69	0.028
821.12	0.029
821.56	0.033
821.99	0.026
822.43	0.028
822.86	0.030
823.30	0.028
823.73	0.025
824.17	0.032
824.60	0.031
825.04	0.031
825.47	0.027
825.90	0.030
826.34	0.029
826.77	0.030
827.21	0.027
827.64	0.027
828.08	0.037
828.51	0.030
828.94	0.027
829.38	0.035
829.81	0.029
830.25	0.030
830.68	0.035
831.11	0.036
831.55	0.033
831.98	0.035
832.42	0.034
832.85	0.036
833.28	0.035
833.72	0.034
834.15	0.040
834.58	0.035
835.02	0.034
835.45	0.035
835.88	0.035
836.32	0.035
836.75	0.040
837.19	0.035
837.62	0.042
838.05	0.039
838.49	0.038
838.92	0.036
839.35	0.036
839.79	0.035
840.22	0.040
840.65	0.037
841.09	0.040
841.52	0.037
841.95	0.045
842.39	0.038
842.82	0.034
843.25	0.034
843.68	0.037
844.12	0.034
844.55	0.039
844.98	0.031
845.42	0.034
845.85	0.043
846.28	0.042
846.71	0.037
847.15	0.041
847.58	0.046
848.01	0.035
848.45	0.035
848.88	0.038
849.31	0.037
849.74	0.037
850.18	0.038
850.61	0.032
851.04	0.039
851.47	0.039
851.91	0.041
852.34	0.034
852.77	0.041
853.20	0.042
853.64	0.041
854.07	0.040
854.50	0.041
854.93	0.038
855.36	0.044
855.80	0.041
856.23	0.047
856.66	0.040
857.09	0.041
857.52	0.045
857.96	0.034
858.39	0.043
858.82	0.038
859.25	0.037
859.68	0.039
860.12	0.037
860.55	0.034
860.98	0.043
861.41	0.039
861.84	0.041
862.27	0.041
862.71	0.045
863.14	0.037
863.57	0.039
864.00	0.046
864.43	0.039
864.86	0.034
865.30	0.038
865.73	0.041
866.16	0.038
866.59	0.039
867.02	0.047
867.45	0.043
867.88	0.040
868.31	0.038
868.75	0.041
869.18	0.039
869.61	0.042
870.04	0.044
870.47	0.046
870.90	0.048
871.33	0.040
871.76	0.049
872.19	0.042
872.62	0.046
873.06	0.044
873.49	0.044
873.92	0.039
874.35	0.042
874.78	0.050
875.21	0.044
875.64	0.047
876.07	0.047
876.50	0.047
876.93	0.045
877.36	0.048
877.79	0.046
878.22	0.047
878.65	0.049
879.08	0.050
879.51	0.044
879.94	0.047
880.37	0.049
880.80	0.046
881.23	0.048
881.67	0.044
882.10	0.046
882.53	0.048
882.96	0.045
883.39	0.049
883.82	0.049
884.25	0.051
884.68	0.049
885.11	0.046
885.54	0.053
885.97	0.051
886.39	0.055
886.82	0.045
887.25	0.047
887.68	0.044
888.11	0.048
888.54	0.053
888.97	0.054
889.40	0.050
889.83	0.056
890.26	0.053
890.69	0.052
891.12	0.057
891.55	0.055
891.98	0.059
892.41	0.052
892.84	0.052
893.27	0.050
893.70	0.050
894.13	0.054
894.56	0.053
894.98	0.053
895.41	0.050
895.84	0.057
896.27	0.058
896.70	0.054
897.13	0.053
897.56	0.059
897.99	0.054
898.42	0.057
898.85	0.066
899.27	0.057
899.70	0.056
900.13	0.059
900.56	0.057
900.99	0.060
901.42	0.055
901.85	0.056
902.28	0.058
902.70	0.062
903.13	0.055
903.56	0.053
903.99	0.060
904.42	0.060
904.85	0.055
905.27	0.057
905.70	0.055
906.13	0.060
906.56	0.063
906.99	0.061
907.42	0.057
907.84	0.058
908.27	0.058
908.70	0.055
909.13	0.058
909.56	0.059
909.98	0.058
910.41	0.058
910.84	0.057
911.27	0.057
911.70	0.059
912.12	0.057
912.55	0.057
912.98	0.059
913.41	0.056
913.84	0.055
914.26	0.060
914.69	0.057
915.12	0.060
915.55	0.059
915.97	0.057
916.40	0.059
916.83	0.060
917.26	0.058
917.68	0.058
918.11	0.058
918.54	0.056
918.97	0.059
919.39	0.061
919.82	0.061
920.25	0.059
920.67	0.062
921.10	0.055
921.53	0.063
921.96	0.062
922.38	0.060
922.81	0.061
923.24	0.068
923.66	0.064
924.09	0.067
924.52	0.065
924.94	0.067
925.37	0.065
925.80	0.069
926.22	0.071
926.65	0.072
927.08	0.069
927.50	0.070
927.93	0.071
928.36	0.073
928.78	0.074
929.21	0.076
929.64	0.079
930.06	0.073
930.49	0.078
930.92	0.078
931.34	0.080
931.77	0.078
932.20	0.078
932.62	0.082
933.05	0.078
933.47	0.082
933.90	0.090
934.33	0.078
934.75	0.082
935.18	0.086
935.61	0.090
936.03	0.089
936.46	0.091
936.88	0.093
937.31	0.095
937.73	0.097
938.16	0.097
938.59	0.103
939.01	0.103
939.44	0.104
939.86	0.107
940.29	0.110
940.71	0.107
941.14	0.102
941.57	0.107
941.99	0.116
942.42	0.118
942.84	0.115
943.27	0.104
943.69	0.116
944.12	0.122
944.54	0.128
944.97	0.131
945.39	0.125
945.82	0.129
946.24	0.122
946.67	0.128
947.09	0.136
947.52	0.133
947.94	0.136
948.37	0.135
948.79	0.147
949.22	0.144
949.64	0.150
950.07	0.152
950.49	0.150
950.92	0.157
951.34	0.168
951.77	0.160
952.19	0.163
952.62	0.171
953.04	0.172
953.47	0.168
953.89	0.172
954.32	0.175
954.74	0.179
955.17	0.181
955.59	0.186
956.01	0.190
956.44	0.192
956.86	0.189
957.29	0.198
957.71	0.201
958.14	0.202
958.56	0.202
958.98	0.208
959.41	0.208
959.83	0.212
960.26	0.216
960.68	0.217
961.10	0.218
961.53	0.216
961.95	0.219
962.38	0.224
962.80	0.217
963.22	0.216
963.65	0.219
964.07	0.221
964.50	0.218
964.92	0.227
965.34	0.218
965.77	0.221
966.19	0.226
966.61	0.221
967.04	0.223
967.46	0.229
967.88	0.226
968.31	0.231
968.73	0.226
969.15	0.225
969.58	0.225
970.00	0.230
970.42	0.233
970.85	0.229
971.27	0.224
971.69	0.236
972.12	0.230
972.54	0.239
972.96	0.237
973.39	0.227
973.81	0.230
974.23	0.231
974.65	0.231
975.08	0.234
975.50	0.228
975.92	0.237
976.35	0.234
976.77	0.227
977.19	0.229
977.61	0.234
978.04	0.235
978.46	0.242
978.88	0.233
979.30	0.234
979.73	0.230
980.15	0.234
980.57	0.234
980.99	0.225
981.42	0.228
981.84	0.230
982.26	0.234
982.68	0.225
983.11	0.236
983.53	0.236
983.95	0.240
984.37	0.231
984.79	0.228
985.22	0.232
985.64	0.228
986.06	0.226
986.48	0.225
986.90	0.222
987.33	0.228
987.75	0.232
988.17	0.227
988.59	0.232
989.01	0.232
989.43	0.230
989.86	0.225
990.28	0.223
990.70	0.231
991.12	0.222
991.54	0.224
991.96	0.223
992.39	0.223
992.81	0.225
993.23	0.217
993.65	0.220
994.07	0.215
994.49	0.213
994.91	0.218
995.34	0.211
995.76	0.219
996.18	0.211
996.60	0.214
997.02	0.215
997.44	0.211
997.86	0.207
998.28	0.206
998.70	0.218
999.12	0.210
999.55	0.216
999.97	0.214
1000.39	0.202
1000.81	0.210
1001.23	0.202
1001.65	0.211
1002.07	0.196
1002.49	0.200
1002.91	0.212
1003.33	0.204
1003.75	0.195
1004.17	0.201
1004.59	0.198
1005.01	0.199
1005.43	0.199
1005.85	0.200
1006.28	0.201
1006.70	0.197
1007.12	0.189
1007.54	0.189
1007.96	0.188
1008.38	0.191
1008.80	0.198
1009.22	0.186
1009.64	0.177
1010.06	0.186
1010.48	0.191
1010.90	0.180
1011.32	0.179
1011.74	0.174
1012.16	0.180
1012.58	0.177
1013.00	0.170
1013.42	0.173
1013.84	0.166
1014.26	0.178
1014.67	0.169
1015.09	0.169
1015.51	0.171
1015.93	0.172
1016.35	0.173
1016.77	0.182
1017.19	0.173
1017.61	0.170
1018.03	0.175
1018.45	0.167
1018.87	0.166
1019.29	0.170
1019.71	0.175
1020.13	0.158
1020.55	0.163
1020.97	0.158
1021.38	0.156
1021.80	0.172
1022.22	0.157
1022.64	0.148
1023.06	0.156
1023.48	0.150
1023.90	0.152
1024.32	0.148
1024.74	0.142
1025.15	0.155
1025.57	0.137
1025.99	0.154
1026.41	0.150
1026.83	0.134
1027.25	0.146
1027.67	0.149
1028.08	0.134
1028.50	0.138
1028.92	0.156
1029.34	0.153
1029.76	0.138
1030.18	0.139
1030.60	0.143
1031.01	0.146
1031.43	0.136
1031.85	0.129
1032.27	0.131
1032.69	0.131
1033.10	0.135
1033.52	0.129
1033.94	0.143
1034.36	0.145
1034.78	0.113
1035.19	0.118
1035.61	0.125
1036.03	0.126
1036.45	0.129
1036.87	0.131
1037.28	0.111
1037.70	0.106
1038.12	0.117
1038.54	0.111
1038.95	0.102
1039.37	0.133
1039.79	0.111
1040.21	0.116
1040.62	0.124
1041.04	0.116
1041.46	0.100
1041.88	0.125
1042.29	0.115
1042.71	0.122
1043.13	0.087
1043.55	0.104
1043.96	0.106
1044.38	0.099
1044.80	0.096
1045.21	0.104
1045.63	0.122
1046.05	0.097
1046.47	0.105
1046.88	0.103
1047.30	0.104
1047.72	0.095
1048.13	0.092
1048.55	0.105
1048.97	0.118
1049.38	0.102
1049.80	0.098
1050.22	0.098
1050.63	0.103
1051.05	0.099
1051.47	0.083
1051.88	0.116
1052.30	0.082
1052.72	0.079
1053.13	0.105
1053.55	0.112
1053.97	0.117
1054.38	0.084
1054.80	0.094
1055.21	0.094
1055.63	0.089
1056.05	0.086
1056.46	0.115
1056.88	0.092
1057.29	0.062
1057.71	0.104
1058.13	0.080
1058.54	0.085
1058.96	0.097
1059.37	0.121
1059.79	0.098
1060.21	0.065
1060.62	0.088
1061.04	0.148
1061.45	0.073
1061.87	0.127
1062.28	0.158
1062.70	0.108
1063.12	0.106
1063.53	0.116
1063.95	0.086
1064.36	0.089
1064.78	0.117
1065.19	0.084
1065.61	0.142
1066.02	0.071
1066.44	0.005
1066.85	0.139
1067.27	0.157
1067.68	0.097
1068.10	0.164
1068.51	0.144
1068.93	0.088
1069.35	0.052
1069.76	0.208
1070.17	0.122
1070.59	0.085
1071.00	0.056
1071.42	0.143
1071.83	0.125
1072.25	0.078
1072.66	0.138
1073.08	0.074
1073.49	0.090
1073.91	0.044
1074.32	0.182
1074.74	0.139
1075.15	0.206
1075.57	0.147
1075.98	0.189
1076.40	0.010
1076.81	-0.004
1077.22	0.418
1077.64	0.268
1078.05	0.157
1078.47	-0.054
1078.88	0.212
1079.30	0.163
1079.71	0.128
1080.12	0.281
1080.54	0.108
1080.95	0.113
1081.37	0.035
1081.78	0.282
1082.19	0.205
1082.61	0.100
1083.02	-0.021
1083.44	0.195
1083.85	0.067
1084.26	0.285
1084.68	0.045
1085.09	0.015
1085.50	0.157
1085.92	0.105
1086.33	0.070
1086.74	0.227
1087.16	0.133
1087.57	0.404
1087.98	0.284
1088.40	0.203
1088.81	0.199
1089.22	0.103
1089.64	0.379
1090.05	-0.059
1090.46	-0.038
1090.88	-0.000
1091.29	0.016
1091.70	0.178
1092.12	0.176
1092.53	0.313
1092.94	0.231
1093.36	-0.071
1093.77	0.605
1094.18	1.166
1094.59	-0.026
1095.01	0.374
1095.42	0.261
1095.83	0.290
1096.25	0.316
1096.66	0.696
1097.07	0.146
1097.48	0.080
1097.90	-0.134
1098.31	0.590
1098.72	0.060
1099.13	-0.173
>>>>>End Processed Spectral Data<<<<<
