SpectraSuite Data File
++++++++++++++++++++++++++++++++++++
Date: Tue Jul 11 15:53:02 CEST 2017
User: IPCE
Dark Spectrum Present: Yes
Reference Spectrum Present: Yes
Number of Sampled Component Spectra: 1
Spectrometers: HR+C0708
Integration Time (usec): 1000 (HR+C0708)
Spectra Averaged: 10 (HR+C0708)
Boxcar Smoothing: 0 (HR+C0708)
Correct for Electrical Dark: No (HR+C0708)
Strobe/Lamp Enabled: No (HR+C0708)
Correct for Detector Non-linearity: No (HR+C0708)
Correct for Stray Light: No (HR+C0708)
Number of Pixels in Processed Spectrum: 2048
>>>>>Begin Processed Spectral Data<<<<<
188.76	-0.037
189.23	-0.237
189.70	-0.000
190.17	-0.149
190.64	1.146
191.12	0.381
191.59	0.004
192.06	0.039
192.53	0.414
193.01	-0.000
193.48	-0.000
193.95	0.487
194.42	0.637
194.90	0.641
195.37	-0.122
195.84	-0.170
196.31	0.726
196.78	0.044
197.26	-0.012
197.73	0.880
198.20	0.342
198.67	0.143
199.14	0.105
199.62	0.548
200.09	0.927
200.56	0.228
201.03	0.229
201.50	0.594
201.97	0.135
202.45	0.323
202.92	0.333
203.39	0.364
203.86	0.300
204.33	0.254
204.80	0.397
205.28	0.397
205.75	0.244
206.22	0.262
206.69	0.482
207.16	0.162
207.63	0.253
208.11	0.383
208.58	0.350
209.05	0.338
209.52	0.417
209.99	0.419
210.46	0.312
210.93	0.291
211.41	0.273
211.88	0.327
212.35	0.290
212.82	0.183
213.29	0.338
213.76	0.363
214.23	0.181
214.70	0.279
215.18	0.321
215.65	0.292
216.12	0.235
216.59	0.350
217.06	0.493
217.53	0.251
218.00	0.347
218.47	0.488
218.94	0.385
219.41	0.398
219.89	0.475
220.36	0.472
220.83	0.420
221.30	0.412
221.77	0.392
222.24	0.399
222.71	0.338
223.18	0.475
223.65	0.467
224.12	0.505
224.59	0.512
225.06	0.600
225.54	0.723
226.01	0.519
226.48	0.641
226.95	0.607
227.42	0.853
227.89	0.668
228.36	0.759
228.83	0.961
229.30	0.826
229.77	0.943
230.24	1.157
230.71	1.100
231.18	1.139
231.65	1.185
232.12	1.416
232.59	1.393
233.06	1.259
233.53	1.481
234.00	1.629
234.47	1.449
234.94	1.562
235.41	1.716
235.88	1.690
236.35	1.561
236.82	1.661
237.29	1.764
237.76	1.812
238.23	1.725
238.70	1.922
239.17	2.070
239.64	1.785
240.11	2.057
240.58	2.039
241.05	2.073
241.52	1.988
241.99	2.178
242.46	2.048
242.93	2.095
243.40	2.022
243.87	2.154
244.34	2.300
244.81	2.023
245.28	2.163
245.75	2.352
246.22	2.254
246.69	2.169
247.16	2.267
247.63	2.217
248.10	2.228
248.57	2.178
249.04	2.226
249.51	2.357
249.98	2.067
250.45	2.326
250.92	2.236
251.39	2.095
251.85	2.009
252.32	2.039
252.79	1.903
253.26	1.853
253.73	1.781
254.20	1.672
254.67	1.623
255.14	1.535
255.61	1.493
256.08	1.475
256.55	1.395
257.02	1.346
257.49	1.316
257.95	1.272
258.42	1.232
258.89	1.194
259.36	1.177
259.83	1.144
260.30	1.104
260.77	1.093
261.24	1.074
261.71	1.048
262.17	1.021
262.64	1.012
263.11	0.992
263.58	0.977
264.05	0.955
264.52	0.936
264.99	0.923
265.46	0.908
265.92	0.899
266.39	0.887
266.86	0.870
267.33	0.854
267.80	0.849
268.27	0.835
268.74	0.828
269.20	0.817
269.67	0.811
270.14	0.795
270.61	0.786
271.08	0.784
271.55	0.775
272.01	0.761
272.48	0.753
272.95	0.751
273.42	0.742
273.89	0.736
274.36	0.732
274.82	0.723
275.29	0.718
275.76	0.711
276.23	0.706
276.70	0.707
277.16	0.697
277.63	0.700
278.10	0.693
278.57	0.690
279.04	0.685
279.50	0.684
279.97	0.683
280.44	0.675
280.91	0.675
281.38	0.670
281.84	0.668
282.31	0.669
282.78	0.668
283.25	0.665
283.72	0.663
284.18	0.659
284.65	0.657
285.12	0.658
285.59	0.660
286.05	0.658
286.52	0.661
286.99	0.660
287.46	0.657
287.92	0.656
288.39	0.659
288.86	0.654
289.33	0.657
289.79	0.662
290.26	0.654
290.73	0.651
291.20	0.648
291.66	0.652
292.13	0.644
292.60	0.636
293.07	0.638
293.53	0.636
294.00	0.625
294.47	0.618
294.93	0.616
295.40	0.611
295.87	0.603
296.34	0.596
296.80	0.588
297.27	0.578
297.74	0.572
298.20	0.565
298.67	0.556
299.14	0.548
299.60	0.534
300.07	0.529
300.54	0.521
301.01	0.513
301.47	0.508
301.94	0.499
302.41	0.488
302.87	0.480
303.34	0.473
303.81	0.470
304.27	0.457
304.74	0.453
305.21	0.449
305.67	0.439
306.14	0.432
306.61	0.427
307.07	0.422
307.54	0.413
308.01	0.407
308.47	0.405
308.94	0.400
309.40	0.393
309.87	0.391
310.34	0.386
310.80	0.384
311.27	0.378
311.74	0.377
312.20	0.374
312.67	0.372
313.13	0.369
313.60	0.364
314.07	0.362
314.53	0.357
315.00	0.361
315.47	0.357
315.93	0.351
316.40	0.353
316.86	0.349
317.33	0.348
317.80	0.345
318.26	0.341
318.73	0.341
319.19	0.338
319.66	0.335
320.13	0.332
320.59	0.333
321.06	0.325
321.52	0.327
321.99	0.330
322.45	0.328
322.92	0.324
323.39	0.323
323.85	0.322
324.32	0.316
324.78	0.318
325.25	0.317
325.71	0.315
326.18	0.309
326.64	0.306
327.11	0.306
327.58	0.305
328.04	0.304
328.51	0.302
328.97	0.301
329.44	0.300
329.90	0.294
330.37	0.292
330.83	0.293
331.30	0.287
331.76	0.287
332.23	0.286
332.69	0.280
333.16	0.279
333.62	0.279
334.09	0.276
334.56	0.273
335.02	0.270
335.49	0.267
335.95	0.265
336.42	0.261
336.88	0.261
337.35	0.259
337.81	0.259
338.28	0.255
338.74	0.259
339.20	0.255
339.67	0.254
340.13	0.252
340.60	0.252
341.06	0.247
341.53	0.245
341.99	0.250
342.46	0.248
342.92	0.244
343.39	0.244
343.85	0.241
344.32	0.239
344.78	0.239
345.25	0.237
345.71	0.240
346.17	0.240
346.64	0.236
347.10	0.239
347.57	0.237
348.03	0.230
348.50	0.228
348.96	0.227
349.43	0.230
349.89	0.225
350.35	0.225
350.82	0.224
351.28	0.219
351.75	0.220
352.21	0.220
352.67	0.214
353.14	0.210
353.60	0.202
354.07	0.203
354.53	0.202
355.00	0.197
355.46	0.194
355.92	0.191
356.39	0.190
356.85	0.184
357.31	0.182
357.78	0.180
358.24	0.175
358.71	0.170
359.17	0.166
359.63	0.157
360.10	0.155
360.56	0.150
361.03	0.146
361.49	0.141
361.95	0.133
362.42	0.124
362.88	0.124
363.34	0.116
363.81	0.112
364.27	0.106
364.73	0.102
365.20	0.096
365.66	0.093
366.12	0.088
366.59	0.086
367.05	0.085
367.51	0.080
367.98	0.077
368.44	0.078
368.90	0.076
369.37	0.077
369.83	0.072
370.29	0.070
370.76	0.070
371.22	0.070
371.68	0.068
372.15	0.067
372.61	0.069
373.07	0.070
373.54	0.069
374.00	0.065
374.46	0.067
374.92	0.062
375.39	0.064
375.85	0.065
376.31	0.063
376.78	0.062
377.24	0.063
377.70	0.062
378.16	0.064
378.63	0.060
379.09	0.064
379.55	0.061
380.01	0.060
380.48	0.061
380.94	0.061
381.40	0.059
381.87	0.058
382.33	0.059
382.79	0.060
383.25	0.058
383.72	0.062
384.18	0.059
384.64	0.058
385.10	0.056
385.56	0.058
386.03	0.055
386.49	0.056
386.95	0.057
387.41	0.058
387.88	0.059
388.34	0.058
388.80	0.056
389.26	0.057
389.72	0.056
390.19	0.058
390.65	0.057
391.11	0.058
391.57	0.057
392.04	0.057
392.50	0.054
392.96	0.057
393.42	0.055
393.88	0.059
394.34	0.055
394.81	0.056
395.27	0.052
395.73	0.052
396.19	0.055
396.65	0.055
397.12	0.054
397.58	0.052
398.04	0.055
398.50	0.051
398.96	0.052
399.42	0.052
399.89	0.053
400.35	0.050
400.81	0.053
401.27	0.056
401.73	0.049
402.19	0.052
402.65	0.052
403.12	0.050
403.58	0.049
404.04	0.049
404.50	0.052
404.96	0.052
405.42	0.047
405.88	0.048
406.34	0.051
406.81	0.048
407.27	0.048
407.73	0.048
408.19	0.046
408.65	0.048
409.11	0.049
409.57	0.048
410.03	0.050
410.49	0.046
410.96	0.047
411.42	0.048
411.88	0.045
412.34	0.044
412.80	0.047
413.26	0.045
413.72	0.044
414.18	0.046
414.64	0.044
415.10	0.046
415.56	0.045
416.02	0.045
416.48	0.042
416.95	0.043
417.41	0.045
417.87	0.043
418.33	0.042
418.79	0.043
419.25	0.045
419.71	0.043
420.17	0.042
420.63	0.040
421.09	0.044
421.55	0.044
422.01	0.040
422.47	0.041
422.93	0.042
423.39	0.044
423.85	0.043
424.31	0.039
424.77	0.041
425.23	0.040
425.69	0.042
426.15	0.043
426.61	0.043
427.07	0.044
427.53	0.043
427.99	0.043
428.45	0.041
428.91	0.042
429.37	0.043
429.83	0.042
430.29	0.044
430.75	0.042
431.21	0.040
431.67	0.042
432.13	0.040
432.59	0.040
433.05	0.040
433.51	0.041
433.97	0.042
434.43	0.040
434.89	0.041
435.35	0.041
435.81	0.039
436.27	0.038
436.73	0.038
437.19	0.039
437.65	0.038
438.11	0.040
438.57	0.042
439.03	0.039
439.48	0.040
439.94	0.039
440.40	0.040
440.86	0.039
441.32	0.038
441.78	0.041
442.24	0.037
442.70	0.039
443.16	0.039
443.62	0.040
444.08	0.039
444.54	0.043
444.99	0.041
445.45	0.038
445.91	0.038
446.37	0.040
446.83	0.037
447.29	0.040
447.75	0.039
448.21	0.038
448.67	0.039
449.12	0.039
449.58	0.038
450.04	0.037
450.50	0.037
450.96	0.037
451.42	0.038
451.88	0.041
452.34	0.039
452.79	0.041
453.25	0.040
453.71	0.035
454.17	0.038
454.63	0.040
455.09	0.039
455.55	0.038
456.00	0.039
456.46	0.038
456.92	0.036
457.38	0.041
457.84	0.039
458.30	0.038
458.75	0.036
459.21	0.039
459.67	0.039
460.13	0.039
460.59	0.039
461.04	0.037
461.50	0.039
461.96	0.038
462.42	0.041
462.88	0.038
463.33	0.037
463.79	0.040
464.25	0.038
464.71	0.040
465.17	0.039
465.62	0.039
466.08	0.039
466.54	0.039
467.00	0.040
467.46	0.041
467.91	0.041
468.37	0.041
468.83	0.041
469.29	0.039
469.74	0.039
470.20	0.038
470.66	0.042
471.12	0.042
471.57	0.041
472.03	0.042
472.49	0.041
472.95	0.041
473.40	0.040
473.86	0.040
474.32	0.040
474.78	0.038
475.23	0.039
475.69	0.040
476.15	0.042
476.60	0.041
477.06	0.039
477.52	0.042
477.98	0.042
478.43	0.041
478.89	0.044
479.35	0.041
479.80	0.041
480.26	0.039
480.72	0.044
481.18	0.041
481.63	0.040
482.09	0.042
482.55	0.040
483.00	0.040
483.46	0.040
483.92	0.041
484.37	0.042
484.83	0.040
485.29	0.043
485.74	0.042
486.20	0.042
486.66	0.043
487.11	0.044
487.57	0.044
488.03	0.043
488.48	0.042
488.94	0.043
489.40	0.043
489.85	0.042
490.31	0.039
490.77	0.045
491.22	0.040
491.68	0.043
492.13	0.043
492.59	0.041
493.05	0.041
493.50	0.041
493.96	0.041
494.42	0.044
494.87	0.041
495.33	0.042
495.78	0.041
496.24	0.041
496.70	0.042
497.15	0.043
497.61	0.042
498.06	0.044
498.52	0.042
498.98	0.043
499.43	0.041
499.89	0.042
500.34	0.041
500.80	0.042
501.25	0.041
501.71	0.043
502.17	0.041
502.62	0.042
503.08	0.040
503.53	0.042
503.99	0.043
504.44	0.043
504.90	0.041
505.36	0.040
505.81	0.039
506.27	0.041
506.72	0.042
507.18	0.044
507.63	0.040
508.09	0.040
508.54	0.042
509.00	0.043
509.45	0.042
509.91	0.042
510.36	0.042
510.82	0.042
511.27	0.040
511.73	0.042
512.19	0.040
512.64	0.043
513.10	0.044
513.55	0.042
514.01	0.039
514.46	0.039
514.92	0.040
515.37	0.042
515.83	0.038
516.28	0.041
516.73	0.040
517.19	0.040
517.64	0.039
518.10	0.041
518.55	0.042
519.01	0.039
519.46	0.040
519.92	0.039
520.37	0.044
520.83	0.041
521.28	0.042
521.74	0.040
522.19	0.040
522.65	0.040
523.10	0.041
523.55	0.040
524.01	0.041
524.46	0.043
524.92	0.041
525.37	0.041
525.83	0.041
526.28	0.040
526.73	0.042
527.19	0.043
527.64	0.045
528.10	0.040
528.55	0.043
529.01	0.043
529.46	0.044
529.91	0.043
530.37	0.042
530.82	0.042
531.28	0.044
531.73	0.043
532.18	0.045
532.64	0.044
533.09	0.046
533.54	0.043
534.00	0.042
534.45	0.044
534.91	0.042
535.36	0.045
535.81	0.044
536.27	0.045
536.72	0.043
537.17	0.046
537.63	0.047
538.08	0.047
538.54	0.047
538.99	0.046
539.44	0.050
539.90	0.048
540.35	0.049
540.80	0.046
541.26	0.046
541.71	0.049
542.16	0.050
542.62	0.048
543.07	0.050
543.52	0.048
543.98	0.050
544.43	0.051
544.88	0.051
545.34	0.053
545.79	0.052
546.24	0.052
546.69	0.051
547.15	0.051
547.60	0.057
548.05	0.054
548.51	0.052
548.96	0.053
549.41	0.056
549.86	0.058
550.32	0.056
550.77	0.058
551.22	0.057
551.68	0.056
552.13	0.057
552.58	0.059
553.03	0.057
553.49	0.059
553.94	0.058
554.39	0.061
554.84	0.064
555.30	0.061
555.75	0.061
556.20	0.061
556.65	0.063
557.11	0.064
557.56	0.065
558.01	0.065
558.46	0.066
558.92	0.066
559.37	0.066
559.82	0.069
560.27	0.070
560.72	0.067
561.18	0.068
561.63	0.072
562.08	0.070
562.53	0.071
562.99	0.071
563.44	0.073
563.89	0.073
564.34	0.073
564.79	0.075
565.25	0.075
565.70	0.076
566.15	0.077
566.60	0.079
567.05	0.079
567.50	0.079
567.96	0.081
568.41	0.082
568.86	0.081
569.31	0.083
569.76	0.084
570.21	0.083
570.67	0.081
571.12	0.087
571.57	0.085
572.02	0.087
572.47	0.089
572.92	0.088
573.37	0.088
573.83	0.091
574.28	0.093
574.73	0.091
575.18	0.093
575.63	0.095
576.08	0.094
576.53	0.095
576.98	0.096
577.44	0.098
577.89	0.097
578.34	0.100
578.79	0.104
579.24	0.102
579.69	0.104
580.14	0.105
580.59	0.105
581.04	0.108
581.49	0.109
581.95	0.109
582.40	0.112
582.85	0.113
583.30	0.114
583.75	0.115
584.20	0.117
584.65	0.116
585.10	0.119
585.55	0.120
586.00	0.124
586.45	0.126
586.90	0.126
587.35	0.126
587.80	0.131
588.25	0.130
588.71	0.131
589.16	0.133
589.61	0.136
590.06	0.139
590.51	0.142
590.96	0.140
591.41	0.145
591.86	0.146
592.31	0.149
592.76	0.149
593.21	0.150
593.66	0.153
594.11	0.158
594.56	0.158
595.01	0.159
595.46	0.161
595.91	0.161
596.36	0.167
596.81	0.167
597.26	0.168
597.71	0.173
598.16	0.173
598.61	0.175
599.06	0.178
599.51	0.179
599.96	0.180
600.41	0.182
600.86	0.187
601.31	0.186
601.76	0.188
602.21	0.190
602.65	0.193
603.10	0.194
603.55	0.196
604.00	0.199
604.45	0.200
604.90	0.203
605.35	0.205
605.80	0.205
606.25	0.206
606.70	0.210
607.15	0.212
607.60	0.212
608.05	0.210
608.50	0.216
608.95	0.216
609.39	0.219
609.84	0.219
610.29	0.219
610.74	0.222
611.19	0.222
611.64	0.223
612.09	0.226
612.54	0.227
612.99	0.228
613.44	0.229
613.88	0.233
614.33	0.228
614.78	0.232
615.23	0.233
615.68	0.233
616.13	0.234
616.58	0.234
617.03	0.234
617.47	0.237
617.92	0.237
618.37	0.237
618.82	0.237
619.27	0.239
619.72	0.239
620.17	0.240
620.61	0.239
621.06	0.242
621.51	0.240
621.96	0.243
622.41	0.244
622.86	0.242
623.30	0.243
623.75	0.243
624.20	0.247
624.65	0.248
625.10	0.248
625.54	0.250
625.99	0.250
626.44	0.251
626.89	0.252
627.34	0.253
627.78	0.255
628.23	0.257
628.68	0.258
629.13	0.258
629.58	0.259
630.02	0.260
630.47	0.263
630.92	0.265
631.37	0.267
631.81	0.268
632.26	0.268
632.71	0.270
633.16	0.273
633.61	0.274
634.05	0.276
634.50	0.278
634.95	0.280
635.40	0.283
635.84	0.286
636.29	0.288
636.74	0.290
637.18	0.292
637.63	0.293
638.08	0.297
638.53	0.299
638.97	0.301
639.42	0.305
639.87	0.310
640.32	0.312
640.76	0.315
641.21	0.316
641.66	0.322
642.10	0.323
642.55	0.326
643.00	0.329
643.44	0.331
643.89	0.337
644.34	0.341
644.79	0.343
645.23	0.346
645.68	0.349
646.13	0.352
646.57	0.355
647.02	0.356
647.47	0.359
647.91	0.363
648.36	0.368
648.81	0.372
649.25	0.374
649.70	0.376
650.15	0.381
650.59	0.381
651.04	0.386
651.48	0.387
651.93	0.391
652.38	0.392
652.82	0.399
653.27	0.398
653.72	0.403
654.16	0.406
654.61	0.408
655.06	0.409
655.50	0.413
655.95	0.413
656.39	0.418
656.84	0.419
657.29	0.420
657.73	0.423
658.18	0.426
658.62	0.427
659.07	0.429
659.52	0.434
659.96	0.433
660.41	0.434
660.85	0.430
661.30	0.433
661.74	0.435
662.19	0.439
662.64	0.439
663.08	0.436
663.53	0.442
663.97	0.440
664.42	0.439
664.86	0.440
665.31	0.436
665.75	0.438
666.20	0.438
666.65	0.437
667.09	0.433
667.54	0.435
667.98	0.434
668.43	0.430
668.87	0.428
669.32	0.427
669.76	0.420
670.21	0.416
670.65	0.416
671.10	0.413
671.54	0.405
671.99	0.399
672.43	0.393
672.88	0.391
673.32	0.385
673.77	0.378
674.21	0.377
674.66	0.366
675.10	0.360
675.55	0.354
675.99	0.346
676.44	0.342
676.88	0.330
677.33	0.324
677.77	0.312
678.22	0.306
678.66	0.302
679.11	0.292
679.55	0.282
679.99	0.276
680.44	0.267
680.88	0.258
681.33	0.250
681.77	0.242
682.22	0.232
682.66	0.225
683.11	0.219
683.55	0.210
683.99	0.204
684.44	0.197
684.88	0.191
685.33	0.182
685.77	0.174
686.21	0.168
686.66	0.159
687.10	0.155
687.55	0.148
687.99	0.145
688.44	0.139
688.88	0.132
689.32	0.128
689.77	0.119
690.21	0.115
690.65	0.111
691.10	0.105
691.54	0.104
691.99	0.100
692.43	0.096
692.87	0.090
693.32	0.087
693.76	0.085
694.20	0.080
694.65	0.080
695.09	0.076
695.53	0.073
695.98	0.071
696.42	0.066
696.86	0.063
697.31	0.063
697.75	0.060
698.19	0.057
698.64	0.057
699.08	0.055
699.52	0.053
699.97	0.053
700.41	0.049
700.85	0.048
701.30	0.046
701.74	0.041
702.18	0.044
702.63	0.041
703.07	0.042
703.51	0.040
703.96	0.040
704.40	0.039
704.84	0.036
705.28	0.036
705.73	0.035
706.17	0.032
706.61	0.033
707.06	0.031
707.50	0.031
707.94	0.031
708.38	0.028
708.83	0.031
709.27	0.025
709.71	0.029
710.15	0.027
710.60	0.028
711.04	0.027
711.48	0.026
711.92	0.027
712.37	0.027
712.81	0.027
713.25	0.023
713.69	0.024
714.13	0.025
714.58	0.023
715.02	0.025
715.46	0.024
715.90	0.023
716.35	0.022
716.79	0.023
717.23	0.023
717.67	0.023
718.11	0.022
718.56	0.022
719.00	0.020
719.44	0.021
719.88	0.025
720.32	0.024
720.76	0.021
721.21	0.023
721.65	0.023
722.09	0.024
722.53	0.022
722.97	0.022
723.41	0.024
723.86	0.020
724.30	0.021
724.74	0.022
725.18	0.024
725.62	0.021
726.06	0.021
726.50	0.021
726.95	0.023
727.39	0.024
727.83	0.022
728.27	0.023
728.71	0.018
729.15	0.023
729.59	0.025
730.03	0.025
730.48	0.023
730.92	0.022
731.36	0.023
731.80	0.023
732.24	0.024
732.68	0.025
733.12	0.024
733.56	0.023
734.00	0.023
734.44	0.026
734.89	0.023
735.33	0.027
735.77	0.022
736.21	0.027
736.65	0.027
737.09	0.024
737.53	0.024
737.97	0.029
738.41	0.025
738.85	0.025
739.29	0.024
739.73	0.028
740.17	0.028
740.61	0.027
741.05	0.027
741.49	0.024
741.93	0.026
742.37	0.023
742.81	0.026
743.26	0.026
743.70	0.024
744.14	0.025
744.58	0.028
745.02	0.026
745.46	0.024
745.90	0.025
746.34	0.026
746.78	0.026
747.22	0.025
747.66	0.024
748.10	0.028
748.54	0.027
748.98	0.024
749.42	0.027
749.86	0.026
750.29	0.028
750.73	0.028
751.17	0.023
751.61	0.026
752.05	0.025
752.49	0.024
752.93	0.026
753.37	0.026
753.81	0.025
754.25	0.025
754.69	0.025
755.13	0.026
755.57	0.026
756.01	0.026
756.45	0.022
756.89	0.024
757.33	0.028
757.77	0.025
758.21	0.028
758.64	0.026
759.08	0.025
759.52	0.024
759.96	0.027
760.40	0.026
760.84	0.022
761.28	0.028
761.72	0.024
762.16	0.026
762.60	0.023
763.03	0.025
763.47	0.023
763.91	0.023
764.35	0.022
764.79	0.028
765.23	0.024
765.67	0.023
766.11	0.023
766.54	0.028
766.98	0.024
767.42	0.025
767.86	0.025
768.30	0.026
768.74	0.027
769.17	0.027
769.61	0.024
770.05	0.025
770.49	0.024
770.93	0.025
771.37	0.027
771.80	0.026
772.24	0.021
772.68	0.026
773.12	0.025
773.56	0.026
774.00	0.025
774.43	0.025
774.87	0.026
775.31	0.024
775.75	0.025
776.19	0.027
776.62	0.027
777.06	0.025
777.50	0.025
777.94	0.027
778.37	0.024
778.81	0.027
779.25	0.027
779.69	0.026
780.13	0.024
780.56	0.025
781.00	0.028
781.44	0.028
781.88	0.023
782.31	0.028
782.75	0.025
783.19	0.025
783.63	0.028
784.06	0.023
784.50	0.025
784.94	0.025
785.37	0.027
785.81	0.025
786.25	0.022
786.69	0.020
787.12	0.025
787.56	0.028
788.00	0.020
788.43	0.025
788.87	0.025
789.31	0.025
789.75	0.026
790.18	0.024
790.62	0.027
791.06	0.026
791.49	0.025
791.93	0.025
792.37	0.021
792.80	0.020
793.24	0.027
793.68	0.025
794.11	0.027
794.55	0.022
794.99	0.025
795.42	0.024
795.86	0.027
796.30	0.029
796.73	0.028
797.17	0.026
797.61	0.023
798.04	0.021
798.48	0.022
798.91	0.025
799.35	0.021
799.79	0.024
800.22	0.023
800.66	0.022
801.10	0.025
801.53	0.025
801.97	0.025
802.40	0.025
802.84	0.026
803.28	0.024
803.71	0.023
804.15	0.024
804.58	0.024
805.02	0.025
805.46	0.025
805.89	0.025
806.33	0.024
806.76	0.022
807.20	0.023
807.63	0.025
808.07	0.025
808.51	0.019
808.94	0.024
809.38	0.026
809.81	0.027
810.25	0.022
810.68	0.029
811.12	0.024
811.55	0.024
811.99	0.027
812.42	0.025
812.86	0.025
813.29	0.021
813.73	0.028
814.17	0.023
814.60	0.024
815.04	0.021
815.47	0.026
815.91	0.027
816.34	0.024
816.78	0.027
817.21	0.023
817.65	0.025
818.08	0.027
818.52	0.020
818.95	0.025
819.39	0.030
819.82	0.025
820.25	0.026
820.69	0.027
821.12	0.024
821.56	0.027
821.99	0.028
822.43	0.027
822.86	0.018
823.30	0.024
823.73	0.019
824.17	0.029
824.60	0.020
825.04	0.028
825.47	0.028
825.90	0.027
826.34	0.025
826.77	0.029
827.21	0.025
827.64	0.022
828.08	0.033
828.51	0.027
828.94	0.024
829.38	0.027
829.81	0.031
830.25	0.029
830.68	0.029
831.11	0.030
831.55	0.034
831.98	0.032
832.42	0.031
832.85	0.030
833.28	0.030
833.72	0.034
834.15	0.035
834.58	0.037
835.02	0.028
835.45	0.027
835.88	0.032
836.32	0.033
836.75	0.032
837.19	0.030
837.62	0.035
838.05	0.035
838.49	0.032
838.92	0.031
839.35	0.032
839.79	0.031
840.22	0.031
840.65	0.033
841.09	0.040
841.52	0.035
841.95	0.035
842.39	0.033
842.82	0.034
843.25	0.033
843.68	0.035
844.12	0.034
844.55	0.032
844.98	0.030
845.42	0.030
845.85	0.037
846.28	0.035
846.71	0.035
847.15	0.034
847.58	0.041
848.01	0.032
848.45	0.034
848.88	0.036
849.31	0.033
849.74	0.029
850.18	0.032
850.61	0.030
851.04	0.034
851.47	0.037
851.91	0.038
852.34	0.038
852.77	0.036
853.20	0.039
853.64	0.033
854.07	0.034
854.50	0.039
854.93	0.040
855.36	0.040
855.80	0.034
856.23	0.040
856.66	0.040
857.09	0.039
857.52	0.039
857.96	0.035
858.39	0.038
858.82	0.034
859.25	0.035
859.68	0.041
860.12	0.036
860.55	0.034
860.98	0.034
861.41	0.034
861.84	0.036
862.27	0.039
862.71	0.036
863.14	0.039
863.57	0.034
864.00	0.041
864.43	0.038
864.86	0.034
865.30	0.035
865.73	0.038
866.16	0.039
866.59	0.044
867.02	0.037
867.45	0.039
867.88	0.036
868.31	0.033
868.75	0.038
869.18	0.035
869.61	0.039
870.04	0.042
870.47	0.043
870.90	0.043
871.33	0.039
871.76	0.042
872.19	0.036
872.62	0.043
873.06	0.038
873.49	0.046
873.92	0.041
874.35	0.039
874.78	0.043
875.21	0.041
875.64	0.044
876.07	0.038
876.50	0.044
876.93	0.049
877.36	0.047
877.79	0.039
878.22	0.042
878.65	0.053
879.08	0.045
879.51	0.042
879.94	0.040
880.37	0.040
880.80	0.039
881.23	0.044
881.67	0.038
882.10	0.034
882.53	0.046
882.96	0.045
883.39	0.044
883.82	0.049
884.25	0.049
884.68	0.049
885.11	0.047
885.54	0.044
885.97	0.042
886.39	0.051
886.82	0.047
887.25	0.047
887.68	0.050
888.11	0.046
888.54	0.047
888.97	0.043
889.40	0.048
889.83	0.051
890.26	0.053
890.69	0.050
891.12	0.049
891.55	0.049
891.98	0.047
892.41	0.049
892.84	0.050
893.27	0.047
893.70	0.049
894.13	0.054
894.56	0.057
894.98	0.051
895.41	0.044
895.84	0.052
896.27	0.049
896.70	0.049
897.13	0.058
897.56	0.058
897.99	0.053
898.42	0.052
898.85	0.059
899.27	0.049
899.70	0.048
900.13	0.055
900.56	0.056
900.99	0.055
901.42	0.055
901.85	0.058
902.28	0.055
902.70	0.055
903.13	0.052
903.56	0.052
903.99	0.050
904.42	0.051
904.85	0.050
905.27	0.055
905.70	0.055
906.13	0.056
906.56	0.056
906.99	0.057
907.42	0.052
907.84	0.053
908.27	0.055
908.70	0.051
909.13	0.054
909.56	0.054
909.98	0.057
910.41	0.054
910.84	0.051
911.27	0.053
911.70	0.052
912.12	0.056
912.55	0.054
912.98	0.054
913.41	0.056
913.84	0.054
914.26	0.054
914.69	0.055
915.12	0.056
915.55	0.055
915.97	0.058
916.40	0.055
916.83	0.054
917.26	0.053
917.68	0.056
918.11	0.055
918.54	0.052
918.97	0.056
919.39	0.059
919.82	0.056
920.25	0.055
920.67	0.057
921.10	0.057
921.53	0.060
921.96	0.061
922.38	0.057
922.81	0.060
923.24	0.062
923.66	0.061
924.09	0.058
924.52	0.062
924.94	0.061
925.37	0.063
925.80	0.065
926.22	0.064
926.65	0.068
927.08	0.065
927.50	0.066
927.93	0.067
928.36	0.068
928.78	0.069
929.21	0.072
929.64	0.075
930.06	0.071
930.49	0.070
930.92	0.071
931.34	0.075
931.77	0.075
932.20	0.075
932.62	0.081
933.05	0.079
933.47	0.081
933.90	0.084
934.33	0.077
934.75	0.082
935.18	0.080
935.61	0.090
936.03	0.086
936.46	0.083
936.88	0.088
937.31	0.090
937.73	0.099
938.16	0.087
938.59	0.097
939.01	0.098
939.44	0.101
939.86	0.099
940.29	0.102
940.71	0.103
941.14	0.104
941.57	0.104
941.99	0.111
942.42	0.114
942.84	0.106
943.27	0.110
943.69	0.115
944.12	0.117
944.54	0.118
944.97	0.121
945.39	0.124
945.82	0.132
946.24	0.123
946.67	0.133
947.09	0.135
947.52	0.127
947.94	0.134
948.37	0.142
948.79	0.138
949.22	0.140
949.64	0.149
950.07	0.155
950.49	0.147
950.92	0.158
951.34	0.162
951.77	0.162
952.19	0.157
952.62	0.166
953.04	0.170
953.47	0.166
953.89	0.165
954.32	0.181
954.74	0.180
955.17	0.176
955.59	0.185
956.01	0.189
956.44	0.193
956.86	0.189
957.29	0.198
957.71	0.202
958.14	0.202
958.56	0.205
958.98	0.208
959.41	0.211
959.83	0.202
960.26	0.217
960.68	0.216
961.10	0.217
961.53	0.208
961.95	0.220
962.38	0.220
962.80	0.212
963.22	0.213
963.65	0.218
964.07	0.218
964.50	0.216
964.92	0.221
965.34	0.212
965.77	0.223
966.19	0.224
966.61	0.218
967.04	0.223
967.46	0.218
967.88	0.220
968.31	0.228
968.73	0.222
969.15	0.224
969.58	0.223
970.00	0.226
970.42	0.224
970.85	0.230
971.27	0.224
971.69	0.229
972.12	0.224
972.54	0.231
972.96	0.235
973.39	0.227
973.81	0.230
974.23	0.234
974.65	0.235
975.08	0.228
975.50	0.226
975.92	0.235
976.35	0.230
976.77	0.224
977.19	0.236
977.61	0.233
978.04	0.239
978.46	0.236
978.88	0.229
979.30	0.232
979.73	0.224
980.15	0.231
980.57	0.235
980.99	0.230
981.42	0.230
981.84	0.230
982.26	0.227
982.68	0.227
983.11	0.237
983.53	0.233
983.95	0.237
984.37	0.224
984.79	0.233
985.22	0.231
985.64	0.229
986.06	0.221
986.48	0.224
986.90	0.222
987.33	0.230
987.75	0.221
988.17	0.228
988.59	0.227
989.01	0.216
989.43	0.225
989.86	0.224
990.28	0.219
990.70	0.215
991.12	0.222
991.54	0.224
991.96	0.219
992.39	0.227
992.81	0.216
993.23	0.213
993.65	0.211
994.07	0.218
994.49	0.215
994.91	0.210
995.34	0.209
995.76	0.215
996.18	0.211
996.60	0.212
997.02	0.204
997.44	0.210
997.86	0.211
998.28	0.203
998.70	0.220
999.12	0.200
999.55	0.209
999.97	0.201
1000.39	0.197
1000.81	0.204
1001.23	0.200
1001.65	0.205
1002.07	0.204
1002.49	0.202
1002.91	0.201
1003.33	0.198
1003.75	0.203
1004.17	0.198
1004.59	0.198
1005.01	0.199
1005.43	0.193
1005.85	0.195
1006.28	0.196
1006.70	0.198
1007.12	0.191
1007.54	0.180
1007.96	0.186
1008.38	0.192
1008.80	0.189
1009.22	0.193
1009.64	0.182
1010.06	0.182
1010.48	0.179
1010.90	0.186
1011.32	0.179
1011.74	0.176
1012.16	0.179
1012.58	0.181
1013.00	0.177
1013.42	0.174
1013.84	0.178
1014.26	0.168
1014.67	0.172
1015.09	0.166
1015.51	0.177
1015.93	0.180
1016.35	0.164
1016.77	0.178
1017.19	0.168
1017.61	0.158
1018.03	0.164
1018.45	0.166
1018.87	0.154
1019.29	0.161
1019.71	0.160
1020.13	0.171
1020.55	0.158
1020.97	0.149
1021.38	0.153
1021.80	0.155
1022.22	0.149
1022.64	0.140
1023.06	0.133
1023.48	0.165
1023.90	0.155
1024.32	0.148
1024.74	0.147
1025.15	0.160
1025.57	0.129
1025.99	0.157
1026.41	0.153
1026.83	0.140
1027.25	0.143
1027.67	0.146
1028.08	0.143
1028.50	0.131
1028.92	0.144
1029.34	0.148
1029.76	0.135
1030.18	0.126
1030.60	0.139
1031.01	0.141
1031.43	0.126
1031.85	0.117
1032.27	0.131
1032.69	0.118
1033.10	0.124
1033.52	0.134
1033.94	0.141
1034.36	0.145
1034.78	0.116
1035.19	0.120
1035.61	0.137
1036.03	0.110
1036.45	0.126
1036.87	0.127
1037.28	0.121
1037.70	0.100
1038.12	0.127
1038.54	0.115
1038.95	0.104
1039.37	0.125
1039.79	0.123
1040.21	0.116
1040.62	0.114
1041.04	0.119
1041.46	0.120
1041.88	0.118
1042.29	0.081
1042.71	0.111
1043.13	0.091
1043.55	0.100
1043.96	0.108
1044.38	0.108
1044.80	0.098
1045.21	0.085
1045.63	0.115
1046.05	0.103
1046.47	0.116
1046.88	0.087
1047.30	0.116
1047.72	0.102
1048.13	0.091
1048.55	0.091
1048.97	0.124
1049.38	0.104
1049.80	0.094
1050.22	0.090
1050.63	0.106
1051.05	0.105
1051.47	0.074
1051.88	0.111
1052.30	0.093
1052.72	0.090
1053.13	0.109
1053.55	0.109
1053.97	0.111
1054.38	0.081
1054.80	0.102
1055.21	0.093
1055.63	0.092
1056.05	0.066
1056.46	0.117
1056.88	0.078
1057.29	0.073
1057.71	0.090
1058.13	0.108
1058.54	0.113
1058.96	0.079
1059.37	0.108
1059.79	0.114
1060.21	0.052
1060.62	0.058
1061.04	0.137
1061.45	0.076
1061.87	0.067
1062.28	0.102
1062.70	0.126
1063.12	0.138
1063.53	0.079
1063.95	0.141
1064.36	0.125
1064.78	0.079
1065.19	0.078
1065.61	0.132
1066.02	0.118
1066.44	0.039
1066.85	0.102
1067.27	0.207
1067.68	0.057
1068.10	0.126
1068.51	0.205
1068.93	0.128
1069.35	0.117
1069.76	0.134
1070.17	0.172
1070.59	0.105
1071.00	0.082
1071.42	0.269
1071.83	0.175
1072.25	0.112
1072.66	0.153
1073.08	0.258
1073.49	0.151
1073.91	0.114
1074.32	0.219
1074.74	0.229
1075.15	0.166
1075.57	0.118
1075.98	0.377
1076.40	0.052
1076.81	0.092
1077.22	0.388
1077.64	0.398
1078.05	0.123
1078.47	-0.157
1078.88	0.326
1079.30	0.255
1079.71	0.242
1080.12	0.148
1080.54	0.341
1080.95	0.229
1081.37	0.077
1081.78	0.107
1082.19	0.179
1082.61	-0.000
1083.02	-0.043
1083.44	0.493
1083.85	0.106
1084.26	-0.270
1084.68	-0.112
1085.09	0.141
1085.50	0.305
1085.92	0.141
1086.33	0.298
1086.74	0.139
1087.16	0.129
1087.57	0.228
1087.98	0.426
1088.40	0.236
1088.81	-0.122
1089.22	0.003
1089.64	0.264
1090.05	0.006
1090.46	-0.179
1090.88	1.094
1091.29	0.465
1091.70	0.286
1092.12	-0.181
1092.53	0.363
1092.94	0.484
1093.36	-0.169
1093.77	0.429
1094.18	0.744
1094.59	0.101
1095.01	0.160
1095.42	0.586
1095.83	-0.000
1096.25	0.312
1096.66	0.214
1097.07	0.386
1097.48	-0.000
1097.90	-0.266
1098.31	1.544
1098.72	-0.000
1099.13	-0.089
>>>>>End Processed Spectral Data<<<<<
