SpectraSuite Data File
++++++++++++++++++++++++++++++++++++
Date: Tue Jul 11 16:15:32 CEST 2017
User: IPCE
Dark Spectrum Present: Yes
Reference Spectrum Present: Yes
Number of Sampled Component Spectra: 1
Spectrometers: HR+C0708
Integration Time (usec): 1000 (HR+C0708)
Spectra Averaged: 10 (HR+C0708)
Boxcar Smoothing: 0 (HR+C0708)
Correct for Electrical Dark: No (HR+C0708)
Strobe/Lamp Enabled: No (HR+C0708)
Correct for Detector Non-linearity: No (HR+C0708)
Correct for Stray Light: No (HR+C0708)
Number of Pixels in Processed Spectrum: 2048
>>>>>Begin Processed Spectral Data<<<<<
188.76	0.248
189.23	-0.034
189.70	-0.334
190.17	0.345
190.64	0.845
191.12	0.347
191.59	-0.000
192.06	1.067
192.53	-0.006
193.01	-0.000
193.48	-0.000
193.95	0.450
194.42	0.301
194.90	0.078
195.37	-0.057
195.84	-0.000
196.31	0.261
196.78	0.081
197.26	0.004
197.73	0.241
198.20	0.097
198.67	0.159
199.14	-0.100
199.62	0.824
200.09	0.117
200.56	0.230
201.03	0.121
201.50	0.346
201.97	0.263
202.45	0.292
202.92	0.299
203.39	0.292
203.86	0.269
204.33	0.297
204.80	0.418
205.28	0.282
205.75	0.232
206.22	0.333
206.69	0.267
207.16	0.257
207.63	0.278
208.11	0.248
208.58	0.153
209.05	0.197
209.52	0.414
209.99	0.248
210.46	0.241
210.93	0.271
211.41	0.261
211.88	0.164
212.35	0.227
212.82	0.302
213.29	0.229
213.76	0.386
214.23	0.265
214.70	0.198
215.18	0.266
215.65	0.305
216.12	0.345
216.59	0.332
217.06	0.365
217.53	0.255
218.00	0.380
218.47	0.406
218.94	0.304
219.41	0.242
219.89	0.292
220.36	0.444
220.83	0.377
221.30	0.389
221.77	0.346
222.24	0.338
222.71	0.476
223.18	0.375
223.65	0.428
224.12	0.432
224.59	0.459
225.06	0.580
225.54	0.446
226.01	0.664
226.48	0.639
226.95	0.587
227.42	0.647
227.89	0.751
228.36	0.749
228.83	0.909
229.30	0.848
229.77	0.866
230.24	0.995
230.71	1.114
231.18	1.083
231.65	1.113
232.12	1.249
232.59	1.314
233.06	1.429
233.53	1.312
234.00	1.414
234.47	1.456
234.94	1.552
235.41	1.553
235.88	1.575
236.35	1.515
236.82	1.611
237.29	1.718
237.76	1.739
238.23	1.784
238.70	1.827
239.17	1.807
239.64	1.847
240.11	1.924
240.58	1.919
241.05	2.102
241.52	2.016
241.99	2.007
242.46	1.939
242.93	2.060
243.40	1.904
243.87	2.126
244.34	2.118
244.81	2.105
245.28	2.081
245.75	2.135
246.22	2.169
246.69	2.123
247.16	2.263
247.63	2.176
248.10	2.198
248.57	2.097
249.04	2.217
249.51	2.213
249.98	2.121
250.45	2.189
250.92	2.072
251.39	2.011
251.85	1.973
252.32	1.933
252.79	1.786
253.26	1.723
253.73	1.662
254.20	1.540
254.67	1.484
255.14	1.396
255.61	1.346
256.08	1.299
256.55	1.239
257.02	1.185
257.49	1.147
257.95	1.109
258.42	1.070
258.89	1.038
259.36	1.001
259.83	0.978
260.30	0.944
260.77	0.926
261.24	0.906
261.71	0.882
262.17	0.863
262.64	0.845
263.11	0.825
263.58	0.812
264.05	0.798
264.52	0.782
264.99	0.767
265.46	0.751
265.92	0.739
266.39	0.728
266.86	0.713
267.33	0.701
267.80	0.694
268.27	0.681
268.74	0.670
269.20	0.658
269.67	0.650
270.14	0.641
270.61	0.637
271.08	0.625
271.55	0.617
272.01	0.610
272.48	0.602
272.95	0.595
273.42	0.590
273.89	0.584
274.36	0.576
274.82	0.565
275.29	0.567
275.76	0.561
276.23	0.554
276.70	0.551
277.16	0.546
277.63	0.539
278.10	0.536
278.57	0.532
279.04	0.531
279.50	0.527
279.97	0.524
280.44	0.521
280.91	0.520
281.38	0.519
281.84	0.515
282.31	0.516
282.78	0.513
283.25	0.513
283.72	0.509
284.18	0.510
284.65	0.509
285.12	0.506
285.59	0.506
286.05	0.505
286.52	0.505
286.99	0.502
287.46	0.499
287.92	0.501
288.39	0.507
288.86	0.500
289.33	0.500
289.79	0.497
290.26	0.497
290.73	0.498
291.20	0.494
291.66	0.494
292.13	0.487
292.60	0.483
293.07	0.478
293.53	0.474
294.00	0.466
294.47	0.464
294.93	0.459
295.40	0.454
295.87	0.445
296.34	0.442
296.80	0.433
297.27	0.425
297.74	0.419
298.20	0.410
298.67	0.406
299.14	0.395
299.60	0.388
300.07	0.381
300.54	0.375
301.01	0.369
301.47	0.362
301.94	0.354
302.41	0.346
302.87	0.339
303.34	0.335
303.81	0.328
304.27	0.323
304.74	0.316
305.21	0.311
305.67	0.303
306.14	0.299
306.61	0.291
307.07	0.289
307.54	0.287
308.01	0.276
308.47	0.273
308.94	0.270
309.40	0.265
309.87	0.266
310.34	0.261
310.80	0.260
311.27	0.255
311.74	0.252
312.20	0.248
312.67	0.246
313.13	0.246
313.60	0.241
314.07	0.238
314.53	0.235
315.00	0.234
315.47	0.235
315.93	0.229
316.40	0.230
316.86	0.229
317.33	0.229
317.80	0.222
318.26	0.224
318.73	0.224
319.19	0.221
319.66	0.218
320.13	0.217
320.59	0.216
321.06	0.215
321.52	0.216
321.99	0.215
322.45	0.212
322.92	0.210
323.39	0.210
323.85	0.211
324.32	0.209
324.78	0.202
325.25	0.198
325.71	0.203
326.18	0.198
326.64	0.199
327.11	0.198
327.58	0.198
328.04	0.196
328.51	0.194
328.97	0.194
329.44	0.192
329.90	0.190
330.37	0.189
330.83	0.186
331.30	0.183
331.76	0.179
332.23	0.185
332.69	0.177
333.16	0.179
333.62	0.178
334.09	0.174
334.56	0.174
335.02	0.170
335.49	0.167
335.95	0.167
336.42	0.164
336.88	0.160
337.35	0.161
337.81	0.160
338.28	0.157
338.74	0.159
339.20	0.158
339.67	0.157
340.13	0.158
340.60	0.157
341.06	0.152
341.53	0.152
341.99	0.153
342.46	0.149
342.92	0.150
343.39	0.148
343.85	0.145
344.32	0.142
344.78	0.143
345.25	0.142
345.71	0.145
346.17	0.142
346.64	0.141
347.10	0.143
347.57	0.142
348.03	0.139
348.50	0.137
348.96	0.136
349.43	0.139
349.89	0.136
350.35	0.137
350.82	0.137
351.28	0.133
351.75	0.135
352.21	0.133
352.67	0.132
353.14	0.131
353.60	0.128
354.07	0.126
354.53	0.126
355.00	0.123
355.46	0.123
355.92	0.121
356.39	0.123
356.85	0.117
357.31	0.118
357.78	0.117
358.24	0.113
358.71	0.114
359.17	0.112
359.63	0.109
360.10	0.108
360.56	0.106
361.03	0.103
361.49	0.104
361.95	0.101
362.42	0.099
362.88	0.098
363.34	0.096
363.81	0.094
364.27	0.091
364.73	0.089
365.20	0.087
365.66	0.086
366.12	0.082
366.59	0.084
367.05	0.083
367.51	0.080
367.98	0.076
368.44	0.080
368.90	0.078
369.37	0.079
369.83	0.077
370.29	0.076
370.76	0.079
371.22	0.078
371.68	0.076
372.15	0.072
372.61	0.074
373.07	0.076
373.54	0.076
374.00	0.075
374.46	0.074
374.92	0.072
375.39	0.073
375.85	0.074
376.31	0.073
376.78	0.074
377.24	0.075
377.70	0.071
378.16	0.071
378.63	0.069
379.09	0.071
379.55	0.072
380.01	0.070
380.48	0.072
380.94	0.073
381.40	0.071
381.87	0.068
382.33	0.068
382.79	0.067
383.25	0.069
383.72	0.070
384.18	0.068
384.64	0.066
385.10	0.066
385.56	0.068
386.03	0.066
386.49	0.069
386.95	0.066
387.41	0.064
387.88	0.069
388.34	0.068
388.80	0.066
389.26	0.064
389.72	0.066
390.19	0.066
390.65	0.065
391.11	0.067
391.57	0.067
392.04	0.067
392.50	0.065
392.96	0.063
393.42	0.066
393.88	0.068
394.34	0.064
394.81	0.064
395.27	0.060
395.73	0.061
396.19	0.063
396.65	0.065
397.12	0.064
397.58	0.062
398.04	0.064
398.50	0.063
398.96	0.062
399.42	0.061
399.89	0.062
400.35	0.059
400.81	0.062
401.27	0.065
401.73	0.062
402.19	0.061
402.65	0.061
403.12	0.061
403.58	0.060
404.04	0.059
404.50	0.061
404.96	0.061
405.42	0.059
405.88	0.058
406.34	0.058
406.81	0.058
407.27	0.058
407.73	0.058
408.19	0.056
408.65	0.055
409.11	0.060
409.57	0.058
410.03	0.058
410.49	0.057
410.96	0.054
411.42	0.055
411.88	0.057
412.34	0.055
412.80	0.055
413.26	0.056
413.72	0.054
414.18	0.057
414.64	0.054
415.10	0.053
415.56	0.057
416.02	0.051
416.48	0.051
416.95	0.052
417.41	0.054
417.87	0.051
418.33	0.053
418.79	0.055
419.25	0.055
419.71	0.052
420.17	0.052
420.63	0.051
421.09	0.052
421.55	0.053
422.01	0.049
422.47	0.054
422.93	0.051
423.39	0.052
423.85	0.053
424.31	0.051
424.77	0.049
425.23	0.049
425.69	0.052
426.15	0.051
426.61	0.053
427.07	0.052
427.53	0.051
427.99	0.052
428.45	0.053
428.91	0.051
429.37	0.053
429.83	0.053
430.29	0.053
430.75	0.050
431.21	0.048
431.67	0.054
432.13	0.050
432.59	0.051
433.05	0.048
433.51	0.053
433.97	0.051
434.43	0.050
434.89	0.049
435.35	0.050
435.81	0.047
436.27	0.048
436.73	0.048
437.19	0.049
437.65	0.049
438.11	0.047
438.57	0.050
439.03	0.048
439.48	0.048
439.94	0.048
440.40	0.046
440.86	0.051
441.32	0.047
441.78	0.048
442.24	0.046
442.70	0.049
443.16	0.050
443.62	0.049
444.08	0.050
444.54	0.053
444.99	0.049
445.45	0.049
445.91	0.047
446.37	0.048
446.83	0.047
447.29	0.047
447.75	0.048
448.21	0.051
448.67	0.047
449.12	0.047
449.58	0.047
450.04	0.047
450.50	0.043
450.96	0.045
451.42	0.048
451.88	0.050
452.34	0.047
452.79	0.047
453.25	0.047
453.71	0.045
454.17	0.047
454.63	0.047
455.09	0.047
455.55	0.049
456.00	0.044
456.46	0.047
456.92	0.046
457.38	0.048
457.84	0.046
458.30	0.048
458.75	0.046
459.21	0.047
459.67	0.047
460.13	0.050
460.59	0.048
461.04	0.047
461.50	0.047
461.96	0.047
462.42	0.048
462.88	0.046
463.33	0.046
463.79	0.049
464.25	0.046
464.71	0.049
465.17	0.047
465.62	0.048
466.08	0.046
466.54	0.048
467.00	0.047
467.46	0.049
467.91	0.047
468.37	0.048
468.83	0.049
469.29	0.047
469.74	0.049
470.20	0.048
470.66	0.047
471.12	0.050
471.57	0.049
472.03	0.049
472.49	0.049
472.95	0.047
473.40	0.048
473.86	0.048
474.32	0.047
474.78	0.047
475.23	0.048
475.69	0.050
476.15	0.051
476.60	0.049
477.06	0.047
477.52	0.051
477.98	0.049
478.43	0.049
478.89	0.050
479.35	0.047
479.80	0.048
480.26	0.047
480.72	0.048
481.18	0.049
481.63	0.047
482.09	0.048
482.55	0.049
483.00	0.048
483.46	0.047
483.92	0.049
484.37	0.051
484.83	0.050
485.29	0.050
485.74	0.050
486.20	0.050
486.66	0.049
487.11	0.050
487.57	0.050
488.03	0.050
488.48	0.047
488.94	0.049
489.40	0.049
489.85	0.048
490.31	0.048
490.77	0.049
491.22	0.049
491.68	0.048
492.13	0.049
492.59	0.050
493.05	0.048
493.50	0.048
493.96	0.048
494.42	0.049
494.87	0.050
495.33	0.049
495.78	0.049
496.24	0.047
496.70	0.051
497.15	0.050
497.61	0.051
498.06	0.051
498.52	0.049
498.98	0.049
499.43	0.047
499.89	0.048
500.34	0.049
500.80	0.050
501.25	0.048
501.71	0.048
502.17	0.049
502.62	0.049
503.08	0.048
503.53	0.048
503.99	0.050
504.44	0.049
504.90	0.048
505.36	0.048
505.81	0.047
506.27	0.049
506.72	0.047
507.18	0.048
507.63	0.048
508.09	0.049
508.54	0.049
509.00	0.048
509.45	0.049
509.91	0.049
510.36	0.047
510.82	0.050
511.27	0.047
511.73	0.049
512.19	0.047
512.64	0.049
513.10	0.049
513.55	0.050
514.01	0.048
514.46	0.046
514.92	0.047
515.37	0.049
515.83	0.046
516.28	0.051
516.73	0.047
517.19	0.045
517.64	0.046
518.10	0.049
518.55	0.049
519.01	0.045
519.46	0.045
519.92	0.046
520.37	0.049
520.83	0.049
521.28	0.049
521.74	0.047
522.19	0.048
522.65	0.048
523.10	0.050
523.55	0.048
524.01	0.048
524.46	0.048
524.92	0.049
525.37	0.048
525.83	0.049
526.28	0.047
526.73	0.049
527.19	0.048
527.64	0.051
528.10	0.049
528.55	0.048
529.01	0.049
529.46	0.049
529.91	0.048
530.37	0.048
530.82	0.048
531.28	0.050
531.73	0.049
532.18	0.051
532.64	0.050
533.09	0.050
533.54	0.048
534.00	0.049
534.45	0.050
534.91	0.048
535.36	0.052
535.81	0.050
536.27	0.051
536.72	0.048
537.17	0.050
537.63	0.054
538.08	0.051
538.54	0.053
538.99	0.051
539.44	0.053
539.90	0.051
540.35	0.054
540.80	0.054
541.26	0.052
541.71	0.051
542.16	0.054
542.62	0.055
543.07	0.055
543.52	0.054
543.98	0.055
544.43	0.054
544.88	0.054
545.34	0.058
545.79	0.056
546.24	0.056
546.69	0.056
547.15	0.056
547.60	0.058
548.05	0.056
548.51	0.056
548.96	0.057
549.41	0.059
549.86	0.060
550.32	0.060
550.77	0.060
551.22	0.060
551.68	0.060
552.13	0.059
552.58	0.063
553.03	0.062
553.49	0.062
553.94	0.061
554.39	0.064
554.84	0.064
555.30	0.066
555.75	0.063
556.20	0.066
556.65	0.066
557.11	0.066
557.56	0.068
558.01	0.066
558.46	0.068
558.92	0.067
559.37	0.071
559.82	0.070
560.27	0.070
560.72	0.070
561.18	0.070
561.63	0.072
562.08	0.072
562.53	0.071
562.99	0.072
563.44	0.073
563.89	0.073
564.34	0.074
564.79	0.077
565.25	0.077
565.70	0.077
566.15	0.078
566.60	0.077
567.05	0.079
567.50	0.082
567.96	0.081
568.41	0.082
568.86	0.081
569.31	0.082
569.76	0.082
570.21	0.082
570.67	0.082
571.12	0.085
571.57	0.084
572.02	0.085
572.47	0.089
572.92	0.087
573.37	0.087
573.83	0.090
574.28	0.091
574.73	0.088
575.18	0.091
575.63	0.093
576.08	0.091
576.53	0.093
576.98	0.094
577.44	0.096
577.89	0.095
578.34	0.096
578.79	0.101
579.24	0.099
579.69	0.100
580.14	0.101
580.59	0.102
581.04	0.104
581.49	0.105
581.95	0.107
582.40	0.106
582.85	0.108
583.30	0.109
583.75	0.110
584.20	0.112
584.65	0.109
585.10	0.113
585.55	0.114
586.00	0.117
586.45	0.118
586.90	0.120
587.35	0.120
587.80	0.122
588.25	0.122
588.71	0.124
589.16	0.127
589.61	0.130
590.06	0.131
590.51	0.131
590.96	0.131
591.41	0.135
591.86	0.138
592.31	0.137
592.76	0.139
593.21	0.140
593.66	0.143
594.11	0.145
594.56	0.147
595.01	0.148
595.46	0.151
595.91	0.151
596.36	0.152
596.81	0.156
597.26	0.157
597.71	0.158
598.16	0.159
598.61	0.163
599.06	0.162
599.51	0.165
599.96	0.167
600.41	0.167
600.86	0.172
601.31	0.170
601.76	0.175
602.21	0.172
602.65	0.177
603.10	0.178
603.55	0.180
604.00	0.180
604.45	0.181
604.90	0.185
605.35	0.187
605.80	0.185
606.25	0.188
606.70	0.190
607.15	0.192
607.60	0.192
608.05	0.192
608.50	0.196
608.95	0.199
609.39	0.198
609.84	0.200
610.29	0.199
610.74	0.200
611.19	0.201
611.64	0.205
612.09	0.205
612.54	0.205
612.99	0.206
613.44	0.207
613.88	0.209
614.33	0.207
614.78	0.209
615.23	0.208
615.68	0.211
616.13	0.212
616.58	0.211
617.03	0.211
617.47	0.213
617.92	0.215
618.37	0.214
618.82	0.216
619.27	0.215
619.72	0.214
620.17	0.215
620.61	0.215
621.06	0.219
621.51	0.218
621.96	0.219
622.41	0.220
622.86	0.218
623.30	0.222
623.75	0.223
624.20	0.224
624.65	0.224
625.10	0.223
625.54	0.226
625.99	0.226
626.44	0.227
626.89	0.227
627.34	0.228
627.78	0.229
628.23	0.230
628.68	0.234
629.13	0.231
629.58	0.232
630.02	0.237
630.47	0.237
630.92	0.239
631.37	0.240
631.81	0.241
632.26	0.243
632.71	0.244
633.16	0.246
633.61	0.248
634.05	0.250
634.50	0.252
634.95	0.252
635.40	0.252
635.84	0.257
636.29	0.258
636.74	0.260
637.18	0.265
637.63	0.264
638.08	0.265
638.53	0.270
638.97	0.270
639.42	0.274
639.87	0.276
640.32	0.278
640.76	0.284
641.21	0.282
641.66	0.286
642.10	0.287
642.55	0.291
643.00	0.295
643.44	0.295
643.89	0.300
644.34	0.304
644.79	0.306
645.23	0.307
645.68	0.310
646.13	0.312
646.57	0.313
647.02	0.318
647.47	0.320
647.91	0.321
648.36	0.327
648.81	0.327
649.25	0.332
649.70	0.334
650.15	0.336
650.59	0.337
651.04	0.340
651.48	0.343
651.93	0.344
652.38	0.348
652.82	0.350
653.27	0.354
653.72	0.356
654.16	0.358
654.61	0.361
655.06	0.362
655.50	0.363
655.95	0.363
656.39	0.364
656.84	0.367
657.29	0.369
657.73	0.370
658.18	0.372
658.62	0.373
659.07	0.376
659.52	0.376
659.96	0.378
660.41	0.378
660.85	0.375
661.30	0.379
661.74	0.381
662.19	0.383
662.64	0.377
663.08	0.379
663.53	0.384
663.97	0.382
664.42	0.381
664.86	0.381
665.31	0.380
665.75	0.380
666.20	0.377
666.65	0.378
667.09	0.377
667.54	0.374
667.98	0.374
668.43	0.370
668.87	0.369
669.32	0.369
669.76	0.364
670.21	0.360
670.65	0.355
671.10	0.355
671.54	0.350
671.99	0.345
672.43	0.339
672.88	0.337
673.32	0.332
673.77	0.325
674.21	0.321
674.66	0.316
675.10	0.310
675.55	0.304
675.99	0.300
676.44	0.293
676.88	0.286
677.33	0.277
677.77	0.269
678.22	0.269
678.66	0.259
679.11	0.249
679.55	0.244
679.99	0.239
680.44	0.230
680.88	0.223
681.33	0.217
681.77	0.211
682.22	0.203
682.66	0.195
683.11	0.190
683.55	0.183
683.99	0.179
684.44	0.171
684.88	0.166
685.33	0.159
685.77	0.155
686.21	0.149
686.66	0.144
687.10	0.136
687.55	0.131
687.99	0.130
688.44	0.123
688.88	0.120
689.32	0.114
689.77	0.108
690.21	0.105
690.65	0.102
691.10	0.096
691.54	0.093
691.99	0.090
692.43	0.086
692.87	0.084
693.32	0.081
693.76	0.079
694.20	0.075
694.65	0.074
695.09	0.071
695.53	0.068
695.98	0.067
696.42	0.063
696.86	0.060
697.31	0.059
697.75	0.058
698.19	0.056
698.64	0.056
699.08	0.053
699.52	0.051
699.97	0.050
700.41	0.051
700.85	0.048
701.30	0.046
701.74	0.043
702.18	0.045
702.63	0.040
703.07	0.042
703.51	0.039
703.96	0.039
704.40	0.040
704.84	0.038
705.28	0.038
705.73	0.036
706.17	0.032
706.61	0.034
707.06	0.033
707.50	0.032
707.94	0.032
708.38	0.030
708.83	0.032
709.27	0.030
709.71	0.033
710.15	0.030
710.60	0.032
711.04	0.031
711.48	0.027
711.92	0.030
712.37	0.028
712.81	0.030
713.25	0.028
713.69	0.028
714.13	0.026
714.58	0.027
715.02	0.027
715.46	0.025
715.90	0.026
716.35	0.025
716.79	0.028
717.23	0.026
717.67	0.026
718.11	0.025
718.56	0.025
719.00	0.025
719.44	0.026
719.88	0.026
720.32	0.028
720.76	0.024
721.21	0.028
721.65	0.028
722.09	0.027
722.53	0.028
722.97	0.027
723.41	0.026
723.86	0.025
724.30	0.024
724.74	0.025
725.18	0.028
725.62	0.024
726.06	0.025
726.50	0.025
726.95	0.027
727.39	0.026
727.83	0.028
728.27	0.026
728.71	0.027
729.15	0.028
729.59	0.027
730.03	0.028
730.48	0.028
730.92	0.027
731.36	0.026
731.80	0.026
732.24	0.027
732.68	0.027
733.12	0.030
733.56	0.028
734.00	0.028
734.44	0.030
734.89	0.026
735.33	0.032
735.77	0.030
736.21	0.026
736.65	0.031
737.09	0.028
737.53	0.029
737.97	0.032
738.41	0.028
738.85	0.029
739.29	0.027
739.73	0.030
740.17	0.028
740.61	0.031
741.05	0.031
741.49	0.027
741.93	0.031
742.37	0.029
742.81	0.031
743.26	0.030
743.70	0.030
744.14	0.030
744.58	0.027
745.02	0.028
745.46	0.028
745.90	0.029
746.34	0.030
746.78	0.031
747.22	0.032
747.66	0.028
748.10	0.030
748.54	0.030
748.98	0.029
749.42	0.028
749.86	0.032
750.29	0.031
750.73	0.030
751.17	0.029
751.61	0.028
752.05	0.030
752.49	0.031
752.93	0.030
753.37	0.030
753.81	0.032
754.25	0.027
754.69	0.029
755.13	0.032
755.57	0.029
756.01	0.029
756.45	0.029
756.89	0.030
757.33	0.031
757.77	0.028
758.21	0.030
758.64	0.031
759.08	0.028
759.52	0.029
759.96	0.031
760.40	0.030
760.84	0.028
761.28	0.028
761.72	0.028
762.16	0.028
762.60	0.027
763.03	0.030
763.47	0.029
763.91	0.024
764.35	0.028
764.79	0.033
765.23	0.029
765.67	0.029
766.11	0.029
766.54	0.031
766.98	0.029
767.42	0.029
767.86	0.030
768.30	0.030
768.74	0.032
769.17	0.032
769.61	0.030
770.05	0.027
770.49	0.027
770.93	0.028
771.37	0.028
771.80	0.029
772.24	0.029
772.68	0.027
773.12	0.029
773.56	0.028
774.00	0.028
774.43	0.029
774.87	0.028
775.31	0.031
775.75	0.029
776.19	0.028
776.62	0.031
777.06	0.029
777.50	0.028
777.94	0.029
778.37	0.028
778.81	0.031
779.25	0.030
779.69	0.028
780.13	0.028
780.56	0.031
781.00	0.031
781.44	0.028
781.88	0.031
782.31	0.031
782.75	0.029
783.19	0.030
783.63	0.032
784.06	0.029
784.50	0.030
784.94	0.029
785.37	0.029
785.81	0.028
786.25	0.026
786.69	0.026
787.12	0.029
787.56	0.031
788.00	0.026
788.43	0.026
788.87	0.026
789.31	0.029
789.75	0.030
790.18	0.027
790.62	0.028
791.06	0.030
791.49	0.031
791.93	0.025
792.37	0.025
792.80	0.027
793.24	0.033
793.68	0.028
794.11	0.030
794.55	0.031
794.99	0.030
795.42	0.029
795.86	0.030
796.30	0.029
796.73	0.027
797.17	0.031
797.61	0.024
798.04	0.023
798.48	0.027
798.91	0.028
799.35	0.027
799.79	0.028
800.22	0.030
800.66	0.025
801.10	0.030
801.53	0.028
801.97	0.026
802.40	0.028
802.84	0.029
803.28	0.025
803.71	0.024
804.15	0.028
804.58	0.029
805.02	0.024
805.46	0.025
805.89	0.028
806.33	0.027
806.76	0.030
807.20	0.027
807.63	0.026
808.07	0.032
808.51	0.025
808.94	0.030
809.38	0.032
809.81	0.027
810.25	0.026
810.68	0.031
811.12	0.029
811.55	0.029
811.99	0.029
812.42	0.028
812.86	0.029
813.29	0.032
813.73	0.029
814.17	0.029
814.60	0.027
815.04	0.030
815.47	0.026
815.91	0.031
816.34	0.028
816.78	0.030
817.21	0.024
817.65	0.027
818.08	0.030
818.52	0.026
818.95	0.027
819.39	0.029
819.82	0.027
820.25	0.031
820.69	0.028
821.12	0.025
821.56	0.031
821.99	0.027
822.43	0.029
822.86	0.029
823.30	0.028
823.73	0.025
824.17	0.029
824.60	0.028
825.04	0.030
825.47	0.032
825.90	0.030
826.34	0.027
826.77	0.031
827.21	0.027
827.64	0.027
828.08	0.037
828.51	0.034
828.94	0.028
829.38	0.032
829.81	0.033
830.25	0.030
830.68	0.031
831.11	0.036
831.55	0.033
831.98	0.031
832.42	0.038
832.85	0.031
833.28	0.034
833.72	0.032
834.15	0.037
834.58	0.035
835.02	0.031
835.45	0.031
835.88	0.035
836.32	0.037
836.75	0.031
837.19	0.038
837.62	0.037
838.05	0.037
838.49	0.041
838.92	0.036
839.35	0.034
839.79	0.035
840.22	0.035
840.65	0.038
841.09	0.039
841.52	0.036
841.95	0.039
842.39	0.036
842.82	0.034
843.25	0.040
843.68	0.036
844.12	0.032
844.55	0.035
844.98	0.034
845.42	0.034
845.85	0.037
846.28	0.037
846.71	0.038
847.15	0.041
847.58	0.042
848.01	0.033
848.45	0.033
848.88	0.037
849.31	0.037
849.74	0.035
850.18	0.036
850.61	0.035
851.04	0.036
851.47	0.041
851.91	0.043
852.34	0.037
852.77	0.039
853.20	0.041
853.64	0.040
854.07	0.038
854.50	0.041
854.93	0.040
855.36	0.040
855.80	0.040
856.23	0.045
856.66	0.040
857.09	0.039
857.52	0.040
857.96	0.040
858.39	0.037
858.82	0.032
859.25	0.039
859.68	0.039
860.12	0.039
860.55	0.038
860.98	0.035
861.41	0.041
861.84	0.034
862.27	0.042
862.71	0.039
863.14	0.038
863.57	0.040
864.00	0.046
864.43	0.041
864.86	0.040
865.30	0.038
865.73	0.039
866.16	0.040
866.59	0.043
867.02	0.044
867.45	0.044
867.88	0.040
868.31	0.038
868.75	0.034
869.18	0.041
869.61	0.044
870.04	0.045
870.47	0.043
870.90	0.042
871.33	0.043
871.76	0.041
872.19	0.041
872.62	0.042
873.06	0.049
873.49	0.048
873.92	0.050
874.35	0.042
874.78	0.046
875.21	0.040
875.64	0.049
876.07	0.041
876.50	0.046
876.93	0.046
877.36	0.043
877.79	0.044
878.22	0.044
878.65	0.051
879.08	0.046
879.51	0.046
879.94	0.039
880.37	0.048
880.80	0.045
881.23	0.040
881.67	0.043
882.10	0.038
882.53	0.040
882.96	0.047
883.39	0.047
883.82	0.046
884.25	0.053
884.68	0.053
885.11	0.048
885.54	0.052
885.97	0.045
886.39	0.051
886.82	0.047
887.25	0.054
887.68	0.048
888.11	0.045
888.54	0.053
888.97	0.049
889.40	0.051
889.83	0.053
890.26	0.054
890.69	0.053
891.12	0.054
891.55	0.051
891.98	0.051
892.41	0.052
892.84	0.052
893.27	0.049
893.70	0.051
894.13	0.052
894.56	0.055
894.98	0.051
895.41	0.048
895.84	0.056
896.27	0.050
896.70	0.052
897.13	0.057
897.56	0.059
897.99	0.054
898.42	0.058
898.85	0.064
899.27	0.052
899.70	0.053
900.13	0.057
900.56	0.057
900.99	0.056
901.42	0.056
901.85	0.062
902.28	0.056
902.70	0.059
903.13	0.052
903.56	0.054
903.99	0.057
904.42	0.055
904.85	0.055
905.27	0.060
905.70	0.058
906.13	0.061
906.56	0.065
906.99	0.059
907.42	0.057
907.84	0.055
908.27	0.055
908.70	0.057
909.13	0.060
909.56	0.059
909.98	0.060
910.41	0.056
910.84	0.051
911.27	0.055
911.70	0.056
912.12	0.059
912.55	0.055
912.98	0.055
913.41	0.057
913.84	0.058
914.26	0.057
914.69	0.059
915.12	0.059
915.55	0.061
915.97	0.060
916.40	0.059
916.83	0.056
917.26	0.055
917.68	0.057
918.11	0.059
918.54	0.056
918.97	0.059
919.39	0.063
919.82	0.057
920.25	0.058
920.67	0.058
921.10	0.056
921.53	0.059
921.96	0.061
922.38	0.058
922.81	0.062
923.24	0.069
923.66	0.064
924.09	0.059
924.52	0.064
924.94	0.066
925.37	0.067
925.80	0.068
926.22	0.067
926.65	0.072
927.08	0.066
927.50	0.070
927.93	0.071
928.36	0.070
928.78	0.073
929.21	0.075
929.64	0.081
930.06	0.073
930.49	0.075
930.92	0.073
931.34	0.079
931.77	0.077
932.20	0.077
932.62	0.079
933.05	0.079
933.47	0.086
933.90	0.088
934.33	0.079
934.75	0.084
935.18	0.086
935.61	0.088
936.03	0.088
936.46	0.088
936.88	0.095
937.31	0.095
937.73	0.095
938.16	0.096
938.59	0.099
939.01	0.099
939.44	0.103
939.86	0.103
940.29	0.105
940.71	0.108
941.14	0.105
941.57	0.107
941.99	0.113
942.42	0.120
942.84	0.115
943.27	0.110
943.69	0.128
944.12	0.130
944.54	0.119
944.97	0.124
945.39	0.121
945.82	0.124
946.24	0.139
946.67	0.138
947.09	0.138
947.52	0.126
947.94	0.137
948.37	0.140
948.79	0.144
949.22	0.150
949.64	0.151
950.07	0.157
950.49	0.151
950.92	0.155
951.34	0.169
951.77	0.162
952.19	0.165
952.62	0.174
953.04	0.173
953.47	0.167
953.89	0.174
954.32	0.175
954.74	0.179
955.17	0.182
955.59	0.191
956.01	0.188
956.44	0.195
956.86	0.194
957.29	0.201
957.71	0.201
958.14	0.201
958.56	0.207
958.98	0.205
959.41	0.212
959.83	0.209
960.26	0.215
960.68	0.212
961.10	0.217
961.53	0.216
961.95	0.217
962.38	0.224
962.80	0.216
963.22	0.212
963.65	0.216
964.07	0.220
964.50	0.221
964.92	0.222
965.34	0.219
965.77	0.228
966.19	0.221
966.61	0.219
967.04	0.220
967.46	0.227
967.88	0.236
968.31	0.229
968.73	0.229
969.15	0.229
969.58	0.220
970.00	0.227
970.42	0.225
970.85	0.232
971.27	0.229
971.69	0.228
972.12	0.238
972.54	0.233
972.96	0.235
973.39	0.231
973.81	0.236
974.23	0.232
974.65	0.230
975.08	0.228
975.50	0.230
975.92	0.232
976.35	0.230
976.77	0.234
977.19	0.234
977.61	0.235
978.04	0.238
978.46	0.239
978.88	0.235
979.30	0.228
979.73	0.227
980.15	0.232
980.57	0.238
980.99	0.227
981.42	0.237
981.84	0.232
982.26	0.229
982.68	0.232
983.11	0.229
983.53	0.227
983.95	0.226
984.37	0.231
984.79	0.234
985.22	0.231
985.64	0.225
986.06	0.226
986.48	0.224
986.90	0.225
987.33	0.231
987.75	0.229
988.17	0.230
988.59	0.223
989.01	0.228
989.43	0.219
989.86	0.233
990.28	0.219
990.70	0.223
991.12	0.223
991.54	0.219
991.96	0.225
992.39	0.218
992.81	0.222
993.23	0.214
993.65	0.219
994.07	0.218
994.49	0.214
994.91	0.216
995.34	0.209
995.76	0.212
996.18	0.212
996.60	0.214
997.02	0.214
997.44	0.207
997.86	0.210
998.28	0.210
998.70	0.207
999.12	0.205
999.55	0.214
999.97	0.204
1000.39	0.202
1000.81	0.206
1001.23	0.204
1001.65	0.205
1002.07	0.210
1002.49	0.209
1002.91	0.209
1003.33	0.206
1003.75	0.202
1004.17	0.202
1004.59	0.198
1005.01	0.202
1005.43	0.195
1005.85	0.191
1006.28	0.205
1006.70	0.197
1007.12	0.186
1007.54	0.195
1007.96	0.182
1008.38	0.192
1008.80	0.188
1009.22	0.186
1009.64	0.184
1010.06	0.193
1010.48	0.192
1010.90	0.175
1011.32	0.169
1011.74	0.168
1012.16	0.186
1012.58	0.177
1013.00	0.175
1013.42	0.175
1013.84	0.169
1014.26	0.178
1014.67	0.177
1015.09	0.174
1015.51	0.178
1015.93	0.180
1016.35	0.169
1016.77	0.182
1017.19	0.177
1017.61	0.179
1018.03	0.176
1018.45	0.175
1018.87	0.158
1019.29	0.164
1019.71	0.151
1020.13	0.160
1020.55	0.161
1020.97	0.152
1021.38	0.156
1021.80	0.156
1022.22	0.161
1022.64	0.151
1023.06	0.140
1023.48	0.141
1023.90	0.150
1024.32	0.151
1024.74	0.152
1025.15	0.151
1025.57	0.148
1025.99	0.151
1026.41	0.143
1026.83	0.142
1027.25	0.153
1027.67	0.146
1028.08	0.150
1028.50	0.133
1028.92	0.144
1029.34	0.143
1029.76	0.137
1030.18	0.117
1030.60	0.127
1031.01	0.128
1031.43	0.133
1031.85	0.124
1032.27	0.133
1032.69	0.111
1033.10	0.125
1033.52	0.122
1033.94	0.134
1034.36	0.144
1034.78	0.116
1035.19	0.127
1035.61	0.126
1036.03	0.122
1036.45	0.127
1036.87	0.132
1037.28	0.129
1037.70	0.115
1038.12	0.112
1038.54	0.108
1038.95	0.109
1039.37	0.130
1039.79	0.119
1040.21	0.099
1040.62	0.101
1041.04	0.113
1041.46	0.105
1041.88	0.103
1042.29	0.090
1042.71	0.121
1043.13	0.077
1043.55	0.092
1043.96	0.109
1044.38	0.105
1044.80	0.104
1045.21	0.093
1045.63	0.111
1046.05	0.086
1046.47	0.114
1046.88	0.108
1047.30	0.112
1047.72	0.113
1048.13	0.100
1048.55	0.094
1048.97	0.115
1049.38	0.095
1049.80	0.085
1050.22	0.103
1050.63	0.112
1051.05	0.074
1051.47	0.081
1051.88	0.101
1052.30	0.081
1052.72	0.105
1053.13	0.097
1053.55	0.102
1053.97	0.098
1054.38	0.085
1054.80	0.082
1055.21	0.090
1055.63	0.091
1056.05	0.109
1056.46	0.129
1056.88	0.095
1057.29	0.100
1057.71	0.065
1058.13	0.088
1058.54	0.089
1058.96	0.109
1059.37	0.099
1059.79	0.100
1060.21	0.075
1060.62	0.067
1061.04	0.114
1061.45	0.090
1061.87	0.115
1062.28	0.093
1062.70	0.113
1063.12	0.094
1063.53	0.095
1063.95	0.096
1064.36	0.097
1064.78	0.081
1065.19	0.071
1065.61	0.094
1066.02	0.098
1066.44	0.068
1066.85	0.113
1067.27	0.145
1067.68	0.106
1068.10	0.089
1068.51	0.130
1068.93	0.086
1069.35	0.058
1069.76	0.163
1070.17	0.139
1070.59	0.137
1071.00	0.061
1071.42	0.151
1071.83	0.084
1072.25	0.113
1072.66	0.153
1073.08	0.157
1073.49	0.181
1073.91	0.145
1074.32	0.143
1074.74	0.157
1075.15	0.087
1075.57	0.118
1075.98	0.135
1076.40	-0.027
1076.81	-0.044
1077.22	0.133
1077.64	0.119
1078.05	0.144
1078.47	-0.123
1078.88	0.237
1079.30	0.230
1079.71	0.173
1080.12	0.247
1080.54	0.180
1080.95	0.274
1081.37	0.115
1081.78	0.153
1082.19	0.224
1082.61	0.130
1083.02	-0.038
1083.44	0.253
1083.85	0.016
1084.26	-0.098
1084.68	-0.007
1085.09	0.127
1085.50	0.114
1085.92	0.359
1086.33	0.116
1086.74	0.143
1087.16	-0.063
1087.57	0.213
1087.98	0.337
1088.40	0.559
1088.81	0.199
1089.22	0.154
1089.64	0.226
1090.05	0.119
1090.46	0.047
1090.88	0.383
1091.29	0.238
1091.70	0.012
1092.12	0.063
1092.53	0.255
1092.94	0.024
1093.36	-0.125
1093.77	0.477
1094.18	0.169
1094.59	-0.003
1095.01	0.787
1095.42	0.468
1095.83	0.262
1096.25	0.156
1096.66	0.337
1097.07	0.123
1097.48	0.011
1097.90	0.080
1098.31	0.503
1098.72	0.121
1099.13	0.256
>>>>>End Processed Spectral Data<<<<<
