SpectraSuite Data File
++++++++++++++++++++++++++++++++++++
Date: Tue Jul 11 15:38:02 CEST 2017
User: IPCE
Dark Spectrum Present: Yes
Reference Spectrum Present: Yes
Number of Sampled Component Spectra: 1
Spectrometers: HR+C0708
Integration Time (usec): 1000 (HR+C0708)
Spectra Averaged: 10 (HR+C0708)
Boxcar Smoothing: 0 (HR+C0708)
Correct for Electrical Dark: No (HR+C0708)
Strobe/Lamp Enabled: No (HR+C0708)
Correct for Detector Non-linearity: No (HR+C0708)
Correct for Stray Light: No (HR+C0708)
Number of Pixels in Processed Spectrum: 2048
>>>>>Begin Processed Spectral Data<<<<<
188.76	0.185
189.23	0.248
189.70	0.036
190.17	0.156
190.64	-0.000
191.12	0.501
191.59	0.558
192.06	0.804
192.53	0.444
193.01	-0.000
193.48	0.041
193.95	0.231
194.42	-0.000
194.90	0.195
195.37	0.028
195.84	0.076
196.31	0.304
196.78	0.324
197.26	0.289
197.73	-0.000
198.20	0.149
198.67	0.189
199.14	0.051
199.62	0.308
200.09	0.369
200.56	0.193
201.03	0.326
201.50	0.368
201.97	0.249
202.45	0.714
202.92	0.524
203.39	0.508
203.86	0.731
204.33	0.468
204.80	0.389
205.28	0.438
205.75	0.405
206.22	1.438
206.69	0.547
207.16	0.340
207.63	0.642
208.11	0.498
208.58	0.352
209.05	0.465
209.52	0.718
209.99	0.585
210.46	0.290
210.93	0.453
211.41	0.531
211.88	0.260
212.35	0.350
212.82	0.368
213.29	0.481
213.76	0.476
214.23	0.445
214.70	0.478
215.18	0.459
215.65	0.303
216.12	0.409
216.59	0.359
217.06	0.505
217.53	0.354
218.00	0.702
218.47	0.517
218.94	0.405
219.41	0.628
219.89	0.781
220.36	0.490
220.83	0.473
221.30	0.405
221.77	0.743
222.24	0.467
222.71	0.789
223.18	0.631
223.65	0.575
224.12	0.613
224.59	0.477
225.06	0.638
225.54	0.795
226.01	0.625
226.48	0.853
226.95	0.787
227.42	0.777
227.89	0.778
228.36	0.982
228.83	1.102
229.30	0.902
229.77	1.030
230.24	1.381
230.71	1.342
231.18	1.126
231.65	1.517
232.12	1.467
232.59	1.301
233.06	1.397
233.53	1.525
234.00	1.546
234.47	1.591
234.94	1.794
235.41	1.680
235.88	1.917
236.35	1.607
236.82	1.813
237.29	1.921
237.76	1.949
238.23	1.740
238.70	2.080
239.17	2.153
239.64	1.982
240.11	2.043
240.58	2.180
241.05	2.165
241.52	2.076
241.99	2.293
242.46	2.143
242.93	2.161
243.40	2.203
243.87	2.284
244.34	2.251
244.81	2.256
245.28	2.196
245.75	2.360
246.22	2.256
246.69	2.262
247.16	2.708
247.63	2.412
248.10	2.313
248.57	2.351
249.04	2.300
249.51	2.360
249.98	2.232
250.45	2.659
250.92	2.449
251.39	2.403
251.85	2.382
252.32	2.353
252.79	2.248
253.26	2.363
253.73	2.295
254.20	2.112
254.67	2.078
255.14	2.050
255.61	2.040
256.08	2.146
256.55	1.977
257.02	1.957
257.49	1.962
257.95	1.930
258.42	1.876
258.89	1.859
259.36	1.860
259.83	1.811
260.30	1.792
260.77	1.806
261.24	1.766
261.71	1.739
262.17	1.728
262.64	1.720
263.11	1.671
263.58	1.693
264.05	1.673
264.52	1.646
264.99	1.613
265.46	1.624
265.92	1.599
266.39	1.589
266.86	1.557
267.33	1.557
267.80	1.564
268.27	1.529
268.74	1.502
269.20	1.507
269.67	1.497
270.14	1.487
270.61	1.471
271.08	1.469
271.55	1.452
272.01	1.423
272.48	1.430
272.95	1.434
273.42	1.412
273.89	1.396
274.36	1.391
274.82	1.397
275.29	1.371
275.76	1.357
276.23	1.359
276.70	1.355
277.16	1.333
277.63	1.356
278.10	1.346
278.57	1.333
279.04	1.317
279.50	1.320
279.97	1.320
280.44	1.300
280.91	1.294
281.38	1.302
281.84	1.303
282.31	1.286
282.78	1.291
283.25	1.286
283.72	1.285
284.18	1.279
284.65	1.287
285.12	1.278
285.59	1.265
286.05	1.257
286.52	1.262
286.99	1.258
287.46	1.259
287.92	1.258
288.39	1.265
288.86	1.256
289.33	1.268
289.79	1.252
290.26	1.257
290.73	1.257
291.20	1.243
291.66	1.246
292.13	1.229
292.60	1.233
293.07	1.231
293.53	1.230
294.00	1.208
294.47	1.203
294.93	1.204
295.40	1.190
295.87	1.171
296.34	1.176
296.80	1.157
297.27	1.148
297.74	1.137
298.20	1.151
298.67	1.131
299.14	1.122
299.60	1.111
300.07	1.094
300.54	1.090
301.01	1.081
301.47	1.073
301.94	1.070
302.41	1.047
302.87	1.029
303.34	1.030
303.81	1.028
304.27	1.014
304.74	1.006
305.21	1.014
305.67	1.000
306.14	0.987
306.61	0.980
307.07	0.972
307.54	0.967
308.01	0.956
308.47	0.952
308.94	0.945
309.40	0.944
309.87	0.938
310.34	0.931
310.80	0.928
311.27	0.916
311.74	0.920
312.20	0.905
312.67	0.906
313.13	0.903
313.60	0.905
314.07	0.892
314.53	0.885
315.00	0.888
315.47	0.885
315.93	0.877
316.40	0.880
316.86	0.877
317.33	0.873
317.80	0.866
318.26	0.861
318.73	0.862
319.19	0.857
319.66	0.847
320.13	0.850
320.59	0.847
321.06	0.838
321.52	0.838
321.99	0.839
322.45	0.834
322.92	0.825
323.39	0.824
323.85	0.822
324.32	0.822
324.78	0.816
325.25	0.809
325.71	0.810
326.18	0.804
326.64	0.798
327.11	0.797
327.58	0.799
328.04	0.790
328.51	0.789
328.97	0.785
329.44	0.782
329.90	0.775
330.37	0.768
330.83	0.770
331.30	0.764
331.76	0.758
332.23	0.753
332.69	0.751
333.16	0.750
333.62	0.750
334.09	0.739
334.56	0.737
335.02	0.731
335.49	0.732
335.95	0.723
336.42	0.718
336.88	0.718
337.35	0.715
337.81	0.718
338.28	0.710
338.74	0.719
339.20	0.710
339.67	0.709
340.13	0.703
340.60	0.708
341.06	0.701
341.53	0.702
341.99	0.701
342.46	0.694
342.92	0.693
343.39	0.689
343.85	0.690
344.32	0.689
344.78	0.685
345.25	0.685
345.71	0.691
346.17	0.682
346.64	0.678
347.10	0.676
347.57	0.673
348.03	0.667
348.50	0.665
348.96	0.660
349.43	0.657
349.89	0.651
350.35	0.655
350.82	0.643
351.28	0.640
351.75	0.629
352.21	0.628
352.67	0.611
353.14	0.608
353.60	0.601
354.07	0.590
354.53	0.585
355.00	0.567
355.46	0.561
355.92	0.551
356.39	0.539
356.85	0.522
357.31	0.514
357.78	0.501
358.24	0.481
358.71	0.468
359.17	0.450
359.63	0.436
360.10	0.418
360.56	0.401
361.03	0.381
361.49	0.367
361.95	0.345
362.42	0.322
362.88	0.305
363.34	0.282
363.81	0.269
364.27	0.251
364.73	0.234
365.20	0.215
365.66	0.203
366.12	0.187
366.59	0.178
367.05	0.167
367.51	0.160
367.98	0.150
368.44	0.143
368.90	0.138
369.37	0.137
369.83	0.130
370.29	0.124
370.76	0.123
371.22	0.120
371.68	0.115
372.15	0.112
372.61	0.111
373.07	0.110
373.54	0.110
374.00	0.105
374.46	0.107
374.92	0.104
375.39	0.103
375.85	0.101
376.31	0.100
376.78	0.100
377.24	0.099
377.70	0.098
378.16	0.100
378.63	0.095
379.09	0.097
379.55	0.097
380.01	0.097
380.48	0.095
380.94	0.097
381.40	0.092
381.87	0.091
382.33	0.093
382.79	0.093
383.25	0.088
383.72	0.092
384.18	0.092
384.64	0.088
385.10	0.090
385.56	0.089
386.03	0.087
386.49	0.087
386.95	0.085
387.41	0.087
387.88	0.087
388.34	0.088
388.80	0.087
389.26	0.086
389.72	0.086
390.19	0.085
390.65	0.084
391.11	0.086
391.57	0.084
392.04	0.084
392.50	0.083
392.96	0.084
393.42	0.084
393.88	0.085
394.34	0.083
394.81	0.083
395.27	0.080
395.73	0.078
396.19	0.081
396.65	0.082
397.12	0.079
397.58	0.077
398.04	0.079
398.50	0.080
398.96	0.079
399.42	0.077
399.89	0.078
400.35	0.076
400.81	0.077
401.27	0.081
401.73	0.075
402.19	0.075
402.65	0.077
403.12	0.074
403.58	0.072
404.04	0.074
404.50	0.075
404.96	0.074
405.42	0.075
405.88	0.072
406.34	0.073
406.81	0.072
407.27	0.071
407.73	0.069
408.19	0.069
408.65	0.070
409.11	0.072
409.57	0.069
410.03	0.073
410.49	0.071
410.96	0.067
411.42	0.069
411.88	0.070
412.34	0.068
412.80	0.070
413.26	0.068
413.72	0.066
414.18	0.070
414.64	0.065
415.10	0.067
415.56	0.066
416.02	0.065
416.48	0.066
416.95	0.066
417.41	0.064
417.87	0.062
418.33	0.064
418.79	0.064
419.25	0.066
419.71	0.063
420.17	0.065
420.63	0.063
421.09	0.063
421.55	0.065
422.01	0.060
422.47	0.063
422.93	0.063
423.39	0.063
423.85	0.064
424.31	0.062
424.77	0.061
425.23	0.060
425.69	0.062
426.15	0.062
426.61	0.063
427.07	0.062
427.53	0.063
427.99	0.063
428.45	0.063
428.91	0.062
429.37	0.061
429.83	0.063
430.29	0.061
430.75	0.061
431.21	0.059
431.67	0.061
432.13	0.058
432.59	0.060
433.05	0.059
433.51	0.061
433.97	0.062
434.43	0.059
434.89	0.060
435.35	0.059
435.81	0.057
436.27	0.058
436.73	0.058
437.19	0.057
437.65	0.058
438.11	0.059
438.57	0.062
439.03	0.056
439.48	0.057
439.94	0.054
440.40	0.058
440.86	0.060
441.32	0.054
441.78	0.055
442.24	0.055
442.70	0.054
443.16	0.057
443.62	0.055
444.08	0.059
444.54	0.059
444.99	0.057
445.45	0.058
445.91	0.055
446.37	0.056
446.83	0.055
447.29	0.056
447.75	0.056
448.21	0.056
448.67	0.056
449.12	0.052
449.58	0.051
450.04	0.054
450.50	0.052
450.96	0.051
451.42	0.055
451.88	0.056
452.34	0.054
452.79	0.053
453.25	0.055
453.71	0.054
454.17	0.051
454.63	0.054
455.09	0.054
455.55	0.055
456.00	0.053
456.46	0.054
456.92	0.055
457.38	0.057
457.84	0.053
458.30	0.055
458.75	0.054
459.21	0.053
459.67	0.054
460.13	0.053
460.59	0.056
461.04	0.053
461.50	0.052
461.96	0.052
462.42	0.054
462.88	0.052
463.33	0.053
463.79	0.054
464.25	0.053
464.71	0.053
465.17	0.055
465.62	0.053
466.08	0.052
466.54	0.054
467.00	0.053
467.46	0.050
467.91	0.054
468.37	0.053
468.83	0.054
469.29	0.053
469.74	0.053
470.20	0.052
470.66	0.054
471.12	0.055
471.57	0.055
472.03	0.053
472.49	0.053
472.95	0.053
473.40	0.053
473.86	0.050
474.32	0.052
474.78	0.053
475.23	0.053
475.69	0.055
476.15	0.055
476.60	0.053
477.06	0.052
477.52	0.052
477.98	0.054
478.43	0.054
478.89	0.055
479.35	0.054
479.80	0.054
480.26	0.053
480.72	0.052
481.18	0.054
481.63	0.054
482.09	0.053
482.55	0.053
483.00	0.053
483.46	0.054
483.92	0.053
484.37	0.055
484.83	0.053
485.29	0.055
485.74	0.053
486.20	0.054
486.66	0.053
487.11	0.054
487.57	0.056
488.03	0.054
488.48	0.053
488.94	0.053
489.40	0.052
489.85	0.053
490.31	0.051
490.77	0.056
491.22	0.051
491.68	0.053
492.13	0.055
492.59	0.054
493.05	0.054
493.50	0.053
493.96	0.050
494.42	0.053
494.87	0.053
495.33	0.052
495.78	0.052
496.24	0.051
496.70	0.053
497.15	0.052
497.61	0.053
498.06	0.054
498.52	0.052
498.98	0.054
499.43	0.051
499.89	0.052
500.34	0.052
500.80	0.054
501.25	0.053
501.71	0.052
502.17	0.053
502.62	0.050
503.08	0.049
503.53	0.051
503.99	0.052
504.44	0.052
504.90	0.052
505.36	0.050
505.81	0.050
506.27	0.049
506.72	0.051
507.18	0.050
507.63	0.050
508.09	0.051
508.54	0.052
509.00	0.053
509.45	0.051
509.91	0.052
510.36	0.051
510.82	0.052
511.27	0.049
511.73	0.049
512.19	0.049
512.64	0.052
513.10	0.052
513.55	0.051
514.01	0.049
514.46	0.049
514.92	0.048
515.37	0.050
515.83	0.045
516.28	0.050
516.73	0.049
517.19	0.050
517.64	0.048
518.10	0.049
518.55	0.052
519.01	0.047
519.46	0.050
519.92	0.049
520.37	0.048
520.83	0.051
521.28	0.050
521.74	0.051
522.19	0.050
522.65	0.048
523.10	0.049
523.55	0.048
524.01	0.052
524.46	0.051
524.92	0.051
525.37	0.050
525.83	0.049
526.28	0.048
526.73	0.051
527.19	0.051
527.64	0.051
528.10	0.051
528.55	0.052
529.01	0.049
529.46	0.053
529.91	0.049
530.37	0.051
530.82	0.051
531.28	0.052
531.73	0.052
532.18	0.052
532.64	0.050
533.09	0.052
533.54	0.052
534.00	0.051
534.45	0.053
534.91	0.051
535.36	0.053
535.81	0.050
536.27	0.054
536.72	0.051
537.17	0.052
537.63	0.054
538.08	0.054
538.54	0.054
538.99	0.053
539.44	0.056
539.90	0.053
540.35	0.056
540.80	0.053
541.26	0.053
541.71	0.056
542.16	0.055
542.62	0.055
543.07	0.056
543.52	0.055
543.98	0.057
544.43	0.057
544.88	0.059
545.34	0.060
545.79	0.059
546.24	0.059
546.69	0.059
547.15	0.058
547.60	0.060
548.05	0.059
548.51	0.060
548.96	0.060
549.41	0.062
549.86	0.062
550.32	0.063
550.77	0.064
551.22	0.065
551.68	0.062
552.13	0.062
552.58	0.063
553.03	0.065
553.49	0.065
553.94	0.063
554.39	0.067
554.84	0.069
555.30	0.067
555.75	0.068
556.20	0.069
556.65	0.069
557.11	0.071
557.56	0.070
558.01	0.069
558.46	0.072
558.92	0.071
559.37	0.073
559.82	0.075
560.27	0.074
560.72	0.074
561.18	0.074
561.63	0.075
562.08	0.077
562.53	0.075
562.99	0.075
563.44	0.077
563.89	0.078
564.34	0.079
564.79	0.080
565.25	0.081
565.70	0.081
566.15	0.081
566.60	0.081
567.05	0.082
567.50	0.083
567.96	0.084
568.41	0.087
568.86	0.085
569.31	0.087
569.76	0.088
570.21	0.086
570.67	0.086
571.12	0.089
571.57	0.088
572.02	0.090
572.47	0.092
572.92	0.092
573.37	0.092
573.83	0.095
574.28	0.095
574.73	0.094
575.18	0.094
575.63	0.097
576.08	0.099
576.53	0.098
576.98	0.100
577.44	0.100
577.89	0.100
578.34	0.103
578.79	0.106
579.24	0.105
579.69	0.105
580.14	0.106
580.59	0.107
581.04	0.110
581.49	0.110
581.95	0.113
582.40	0.113
582.85	0.114
583.30	0.115
583.75	0.117
584.20	0.117
584.65	0.118
585.10	0.121
585.55	0.121
586.00	0.124
586.45	0.127
586.90	0.127
587.35	0.129
587.80	0.130
588.25	0.132
588.71	0.132
589.16	0.134
589.61	0.139
590.06	0.137
590.51	0.141
590.96	0.141
591.41	0.145
591.86	0.145
592.31	0.148
592.76	0.149
593.21	0.152
593.66	0.152
594.11	0.155
594.56	0.157
595.01	0.160
595.46	0.163
595.91	0.162
596.36	0.166
596.81	0.167
597.26	0.169
597.71	0.171
598.16	0.170
598.61	0.176
599.06	0.177
599.51	0.177
599.96	0.179
600.41	0.182
600.86	0.185
601.31	0.184
601.76	0.189
602.21	0.190
602.65	0.191
603.10	0.193
603.55	0.193
604.00	0.198
604.45	0.197
604.90	0.200
605.35	0.202
605.80	0.203
606.25	0.202
606.70	0.207
607.15	0.210
607.60	0.209
608.05	0.210
608.50	0.213
608.95	0.215
609.39	0.216
609.84	0.216
610.29	0.216
610.74	0.219
611.19	0.218
611.64	0.220
612.09	0.223
612.54	0.223
612.99	0.225
613.44	0.225
613.88	0.230
614.33	0.225
614.78	0.227
615.23	0.228
615.68	0.230
616.13	0.228
616.58	0.231
617.03	0.229
617.47	0.232
617.92	0.233
618.37	0.234
618.82	0.232
619.27	0.233
619.72	0.234
620.17	0.234
620.61	0.236
621.06	0.236
621.51	0.237
621.96	0.236
622.41	0.240
622.86	0.238
623.30	0.240
623.75	0.240
624.20	0.242
624.65	0.243
625.10	0.241
625.54	0.244
625.99	0.247
626.44	0.245
626.89	0.247
627.34	0.245
627.78	0.246
628.23	0.251
628.68	0.251
629.13	0.250
629.58	0.252
630.02	0.255
630.47	0.255
630.92	0.258
631.37	0.259
631.81	0.260
632.26	0.261
632.71	0.265
633.16	0.266
633.61	0.267
634.05	0.271
634.50	0.271
634.95	0.274
635.40	0.274
635.84	0.279
636.29	0.282
636.74	0.283
637.18	0.285
637.63	0.287
638.08	0.289
638.53	0.290
638.97	0.297
639.42	0.298
639.87	0.300
640.32	0.304
640.76	0.307
641.21	0.310
641.66	0.312
642.10	0.317
642.55	0.319
643.00	0.322
643.44	0.321
643.89	0.328
644.34	0.333
644.79	0.335
645.23	0.338
645.68	0.341
646.13	0.342
646.57	0.347
647.02	0.349
647.47	0.352
647.91	0.355
648.36	0.357
648.81	0.362
649.25	0.367
649.70	0.369
650.15	0.370
650.59	0.374
651.04	0.380
651.48	0.380
651.93	0.383
652.38	0.386
652.82	0.389
653.27	0.391
653.72	0.396
654.16	0.398
654.61	0.399
655.06	0.405
655.50	0.405
655.95	0.407
656.39	0.409
656.84	0.412
657.29	0.414
657.73	0.415
658.18	0.419
658.62	0.419
659.07	0.423
659.52	0.424
659.96	0.426
660.41	0.425
660.85	0.427
661.30	0.431
661.74	0.435
662.19	0.435
662.64	0.431
663.08	0.433
663.53	0.437
663.97	0.433
664.42	0.435
664.86	0.438
665.31	0.437
665.75	0.437
666.20	0.435
666.65	0.434
667.09	0.433
667.54	0.431
667.98	0.430
668.43	0.428
668.87	0.426
669.32	0.422
669.76	0.417
670.21	0.416
670.65	0.414
671.10	0.411
671.54	0.403
671.99	0.401
672.43	0.394
672.88	0.388
673.32	0.385
673.77	0.377
674.21	0.370
674.66	0.365
675.10	0.360
675.55	0.354
675.99	0.349
676.44	0.341
676.88	0.331
677.33	0.322
677.77	0.316
678.22	0.309
678.66	0.301
679.11	0.291
679.55	0.284
679.99	0.277
680.44	0.267
680.88	0.261
681.33	0.252
681.77	0.246
682.22	0.237
682.66	0.227
683.11	0.222
683.55	0.216
683.99	0.208
684.44	0.199
684.88	0.192
685.33	0.183
685.77	0.178
686.21	0.172
686.66	0.165
687.10	0.159
687.55	0.151
687.99	0.148
688.44	0.143
688.88	0.136
689.32	0.132
689.77	0.125
690.21	0.121
690.65	0.118
691.10	0.110
691.54	0.108
691.99	0.104
692.43	0.099
692.87	0.096
693.32	0.092
693.76	0.088
694.20	0.086
694.65	0.084
695.09	0.080
695.53	0.079
695.98	0.075
696.42	0.070
696.86	0.068
697.31	0.068
697.75	0.065
698.19	0.061
698.64	0.060
699.08	0.060
699.52	0.055
699.97	0.056
700.41	0.056
700.85	0.055
701.30	0.052
701.74	0.048
702.18	0.049
702.63	0.046
703.07	0.046
703.51	0.043
703.96	0.043
704.40	0.043
704.84	0.043
705.28	0.042
705.73	0.038
706.17	0.038
706.61	0.038
707.06	0.037
707.50	0.035
707.94	0.037
708.38	0.032
708.83	0.036
709.27	0.034
709.71	0.034
710.15	0.032
710.60	0.032
711.04	0.032
711.48	0.031
711.92	0.035
712.37	0.032
712.81	0.031
713.25	0.030
713.69	0.030
714.13	0.029
714.58	0.028
715.02	0.027
715.46	0.028
715.90	0.028
716.35	0.029
716.79	0.030
717.23	0.029
717.67	0.029
718.11	0.026
718.56	0.027
719.00	0.025
719.44	0.028
719.88	0.029
720.32	0.029
720.76	0.027
721.21	0.029
721.65	0.030
722.09	0.029
722.53	0.027
722.97	0.028
723.41	0.028
723.86	0.026
724.30	0.025
724.74	0.028
725.18	0.027
725.62	0.028
726.06	0.030
726.50	0.027
726.95	0.027
727.39	0.027
727.83	0.028
728.27	0.028
728.71	0.025
729.15	0.027
729.59	0.028
730.03	0.029
730.48	0.027
730.92	0.026
731.36	0.028
731.80	0.028
732.24	0.029
732.68	0.030
733.12	0.030
733.56	0.029
734.00	0.031
734.44	0.029
734.89	0.029
735.33	0.030
735.77	0.030
736.21	0.032
736.65	0.032
737.09	0.028
737.53	0.031
737.97	0.033
738.41	0.030
738.85	0.031
739.29	0.030
739.73	0.031
740.17	0.029
740.61	0.032
741.05	0.034
741.49	0.029
741.93	0.031
742.37	0.029
742.81	0.033
743.26	0.032
743.70	0.031
744.14	0.032
744.58	0.031
745.02	0.032
745.46	0.028
745.90	0.031
746.34	0.030
746.78	0.031
747.22	0.032
747.66	0.031
748.10	0.030
748.54	0.033
748.98	0.032
749.42	0.032
749.86	0.032
750.29	0.032
750.73	0.033
751.17	0.028
751.61	0.031
752.05	0.032
752.49	0.031
752.93	0.034
753.37	0.031
753.81	0.031
754.25	0.030
754.69	0.032
755.13	0.033
755.57	0.031
756.01	0.029
756.45	0.030
756.89	0.030
757.33	0.035
757.77	0.030
758.21	0.031
758.64	0.033
759.08	0.032
759.52	0.030
759.96	0.032
760.40	0.028
760.84	0.029
761.28	0.034
761.72	0.030
762.16	0.031
762.60	0.028
763.03	0.029
763.47	0.027
763.91	0.027
764.35	0.029
764.79	0.031
765.23	0.032
765.67	0.029
766.11	0.031
766.54	0.033
766.98	0.030
767.42	0.030
767.86	0.032
768.30	0.032
768.74	0.030
769.17	0.034
769.61	0.029
770.05	0.028
770.49	0.025
770.93	0.032
771.37	0.030
771.80	0.032
772.24	0.032
772.68	0.029
773.12	0.029
773.56	0.029
774.00	0.030
774.43	0.032
774.87	0.029
775.31	0.034
775.75	0.030
776.19	0.029
776.62	0.031
777.06	0.028
777.50	0.029
777.94	0.029
778.37	0.030
778.81	0.031
779.25	0.032
779.69	0.029
780.13	0.030
780.56	0.030
781.00	0.033
781.44	0.032
781.88	0.030
782.31	0.031
782.75	0.029
783.19	0.030
783.63	0.031
784.06	0.026
784.50	0.031
784.94	0.029
785.37	0.031
785.81	0.028
786.25	0.028
786.69	0.028
787.12	0.031
787.56	0.030
788.00	0.027
788.43	0.028
788.87	0.031
789.31	0.028
789.75	0.030
790.18	0.028
790.62	0.031
791.06	0.031
791.49	0.030
791.93	0.028
792.37	0.027
792.80	0.026
793.24	0.028
793.68	0.030
794.11	0.030
794.55	0.030
794.99	0.028
795.42	0.027
795.86	0.027
796.30	0.030
796.73	0.028
797.17	0.029
797.61	0.027
798.04	0.026
798.48	0.031
798.91	0.030
799.35	0.028
799.79	0.030
800.22	0.027
800.66	0.025
801.10	0.029
801.53	0.027
801.97	0.027
802.40	0.028
802.84	0.028
803.28	0.027
803.71	0.029
804.15	0.031
804.58	0.028
805.02	0.025
805.46	0.028
805.89	0.030
806.33	0.029
806.76	0.026
807.20	0.030
807.63	0.026
808.07	0.030
808.51	0.027
808.94	0.032
809.38	0.031
809.81	0.024
810.25	0.028
810.68	0.035
811.12	0.030
811.55	0.026
811.99	0.031
812.42	0.029
812.86	0.033
813.29	0.028
813.73	0.027
814.17	0.028
814.60	0.029
815.04	0.025
815.47	0.028
815.91	0.033
816.34	0.029
816.78	0.030
817.21	0.027
817.65	0.026
818.08	0.032
818.52	0.026
818.95	0.030
819.39	0.033
819.82	0.029
820.25	0.031
820.69	0.027
821.12	0.028
821.56	0.032
821.99	0.026
822.43	0.033
822.86	0.027
823.30	0.027
823.73	0.024
824.17	0.031
824.60	0.027
825.04	0.032
825.47	0.031
825.90	0.034
826.34	0.029
826.77	0.036
827.21	0.026
827.64	0.028
828.08	0.033
828.51	0.035
828.94	0.031
829.38	0.033
829.81	0.033
830.25	0.033
830.68	0.033
831.11	0.036
831.55	0.036
831.98	0.033
832.42	0.036
832.85	0.032
833.28	0.036
833.72	0.037
834.15	0.039
834.58	0.039
835.02	0.038
835.45	0.036
835.88	0.037
836.32	0.036
836.75	0.031
837.19	0.037
837.62	0.039
838.05	0.038
838.49	0.037
838.92	0.038
839.35	0.038
839.79	0.037
840.22	0.036
840.65	0.036
841.09	0.039
841.52	0.039
841.95	0.036
842.39	0.032
842.82	0.033
843.25	0.037
843.68	0.041
844.12	0.038
844.55	0.039
844.98	0.029
845.42	0.036
845.85	0.039
846.28	0.039
846.71	0.040
847.15	0.040
847.58	0.042
848.01	0.037
848.45	0.037
848.88	0.039
849.31	0.038
849.74	0.040
850.18	0.039
850.61	0.039
851.04	0.037
851.47	0.044
851.91	0.041
852.34	0.038
852.77	0.039
853.20	0.040
853.64	0.040
854.07	0.043
854.50	0.046
854.93	0.044
855.36	0.041
855.80	0.034
856.23	0.046
856.66	0.042
857.09	0.040
857.52	0.046
857.96	0.043
858.39	0.044
858.82	0.043
859.25	0.042
859.68	0.045
860.12	0.037
860.55	0.042
860.98	0.042
861.41	0.037
861.84	0.036
862.27	0.043
862.71	0.042
863.14	0.041
863.57	0.041
864.00	0.044
864.43	0.043
864.86	0.038
865.30	0.045
865.73	0.043
866.16	0.043
866.59	0.040
867.02	0.045
867.45	0.042
867.88	0.042
868.31	0.042
868.75	0.039
869.18	0.045
869.61	0.043
870.04	0.044
870.47	0.047
870.90	0.041
871.33	0.040
871.76	0.042
872.19	0.040
872.62	0.048
873.06	0.047
873.49	0.050
873.92	0.044
874.35	0.042
874.78	0.042
875.21	0.046
875.64	0.052
876.07	0.045
876.50	0.049
876.93	0.044
877.36	0.051
877.79	0.047
878.22	0.051
878.65	0.052
879.08	0.052
879.51	0.042
879.94	0.044
880.37	0.052
880.80	0.043
881.23	0.045
881.67	0.050
882.10	0.040
882.53	0.045
882.96	0.050
883.39	0.046
883.82	0.048
884.25	0.052
884.68	0.056
885.11	0.044
885.54	0.055
885.97	0.048
886.39	0.052
886.82	0.051
887.25	0.055
887.68	0.053
888.11	0.048
888.54	0.051
888.97	0.051
889.40	0.053
889.83	0.058
890.26	0.055
890.69	0.053
891.12	0.056
891.55	0.050
891.98	0.054
892.41	0.051
892.84	0.056
893.27	0.053
893.70	0.053
894.13	0.064
894.56	0.055
894.98	0.051
895.41	0.052
895.84	0.056
896.27	0.052
896.70	0.055
897.13	0.058
897.56	0.058
897.99	0.056
898.42	0.060
898.85	0.063
899.27	0.056
899.70	0.058
900.13	0.060
900.56	0.054
900.99	0.057
901.42	0.055
901.85	0.060
902.28	0.056
902.70	0.058
903.13	0.058
903.56	0.060
903.99	0.059
904.42	0.060
904.85	0.056
905.27	0.061
905.70	0.058
906.13	0.059
906.56	0.061
906.99	0.063
907.42	0.057
907.84	0.058
908.27	0.057
908.70	0.057
909.13	0.061
909.56	0.062
909.98	0.059
910.41	0.057
910.84	0.057
911.27	0.056
911.70	0.059
912.12	0.060
912.55	0.056
912.98	0.057
913.41	0.060
913.84	0.056
914.26	0.058
914.69	0.062
915.12	0.060
915.55	0.059
915.97	0.065
916.40	0.058
916.83	0.057
917.26	0.056
917.68	0.058
918.11	0.061
918.54	0.060
918.97	0.059
919.39	0.063
919.82	0.058
920.25	0.062
920.67	0.059
921.10	0.058
921.53	0.062
921.96	0.060
922.38	0.057
922.81	0.064
923.24	0.063
923.66	0.065
924.09	0.062
924.52	0.063
924.94	0.067
925.37	0.068
925.80	0.068
926.22	0.071
926.65	0.069
927.08	0.067
927.50	0.069
927.93	0.070
928.36	0.073
928.78	0.073
929.21	0.077
929.64	0.077
930.06	0.075
930.49	0.077
930.92	0.074
931.34	0.079
931.77	0.079
932.20	0.079
932.62	0.084
933.05	0.077
933.47	0.083
933.90	0.087
934.33	0.082
934.75	0.089
935.18	0.085
935.61	0.089
936.03	0.088
936.46	0.089
936.88	0.089
937.31	0.095
937.73	0.096
938.16	0.095
938.59	0.101
939.01	0.105
939.44	0.107
939.86	0.100
940.29	0.105
940.71	0.109
941.14	0.109
941.57	0.098
941.99	0.118
942.42	0.119
942.84	0.116
943.27	0.112
943.69	0.128
944.12	0.127
944.54	0.121
944.97	0.126
945.39	0.115
945.82	0.128
946.24	0.129
946.67	0.136
947.09	0.137
947.52	0.138
947.94	0.141
948.37	0.139
948.79	0.145
949.22	0.144
949.64	0.145
950.07	0.155
950.49	0.148
950.92	0.163
951.34	0.155
951.77	0.161
952.19	0.165
952.62	0.169
953.04	0.170
953.47	0.165
953.89	0.171
954.32	0.176
954.74	0.179
955.17	0.183
955.59	0.191
956.01	0.192
956.44	0.189
956.86	0.191
957.29	0.200
957.71	0.202
958.14	0.203
958.56	0.208
958.98	0.209
959.41	0.217
959.83	0.216
960.26	0.211
960.68	0.209
961.10	0.211
961.53	0.216
961.95	0.223
962.38	0.224
962.80	0.220
963.22	0.212
963.65	0.218
964.07	0.223
964.50	0.221
964.92	0.221
965.34	0.215
965.77	0.225
966.19	0.230
966.61	0.227
967.04	0.221
967.46	0.230
967.88	0.225
968.31	0.230
968.73	0.226
969.15	0.229
969.58	0.226
970.00	0.229
970.42	0.227
970.85	0.235
971.27	0.229
971.69	0.224
972.12	0.232
972.54	0.238
972.96	0.234
973.39	0.229
973.81	0.237
974.23	0.235
974.65	0.234
975.08	0.235
975.50	0.236
975.92	0.229
976.35	0.230
976.77	0.233
977.19	0.231
977.61	0.233
978.04	0.240
978.46	0.241
978.88	0.234
979.30	0.239
979.73	0.228
980.15	0.238
980.57	0.234
980.99	0.226
981.42	0.230
981.84	0.231
982.26	0.229
982.68	0.228
983.11	0.233
983.53	0.236
983.95	0.229
984.37	0.227
984.79	0.236
985.22	0.231
985.64	0.228
986.06	0.232
986.48	0.219
986.90	0.223
987.33	0.234
987.75	0.226
988.17	0.229
988.59	0.228
989.01	0.228
989.43	0.227
989.86	0.226
990.28	0.227
990.70	0.225
991.12	0.223
991.54	0.224
991.96	0.225
992.39	0.225
992.81	0.222
993.23	0.213
993.65	0.209
994.07	0.225
994.49	0.212
994.91	0.213
995.34	0.215
995.76	0.214
996.18	0.213
996.60	0.217
997.02	0.218
997.44	0.212
997.86	0.218
998.28	0.212
998.70	0.213
999.12	0.209
999.55	0.215
999.97	0.212
1000.39	0.208
1000.81	0.208
1001.23	0.212
1001.65	0.210
1002.07	0.213
1002.49	0.205
1002.91	0.209
1003.33	0.211
1003.75	0.204
1004.17	0.208
1004.59	0.207
1005.01	0.201
1005.43	0.193
1005.85	0.192
1006.28	0.196
1006.70	0.203
1007.12	0.202
1007.54	0.199
1007.96	0.189
1008.38	0.191
1008.80	0.196
1009.22	0.191
1009.64	0.184
1010.06	0.192
1010.48	0.192
1010.90	0.182
1011.32	0.183
1011.74	0.179
1012.16	0.176
1012.58	0.177
1013.00	0.174
1013.42	0.184
1013.84	0.179
1014.26	0.165
1014.67	0.182
1015.09	0.175
1015.51	0.183
1015.93	0.179
1016.35	0.176
1016.77	0.171
1017.19	0.172
1017.61	0.157
1018.03	0.175
1018.45	0.169
1018.87	0.158
1019.29	0.158
1019.71	0.160
1020.13	0.169
1020.55	0.160
1020.97	0.160
1021.38	0.147
1021.80	0.165
1022.22	0.160
1022.64	0.152
1023.06	0.143
1023.48	0.144
1023.90	0.146
1024.32	0.157
1024.74	0.154
1025.15	0.158
1025.57	0.152
1025.99	0.157
1026.41	0.139
1026.83	0.145
1027.25	0.145
1027.67	0.153
1028.08	0.144
1028.50	0.146
1028.92	0.147
1029.34	0.147
1029.76	0.140
1030.18	0.132
1030.60	0.132
1031.01	0.146
1031.43	0.137
1031.85	0.132
1032.27	0.143
1032.69	0.119
1033.10	0.117
1033.52	0.131
1033.94	0.135
1034.36	0.144
1034.78	0.112
1035.19	0.137
1035.61	0.128
1036.03	0.128
1036.45	0.121
1036.87	0.138
1037.28	0.116
1037.70	0.102
1038.12	0.117
1038.54	0.125
1038.95	0.124
1039.37	0.141
1039.79	0.118
1040.21	0.104
1040.62	0.125
1041.04	0.118
1041.46	0.116
1041.88	0.107
1042.29	0.111
1042.71	0.109
1043.13	0.079
1043.55	0.102
1043.96	0.117
1044.38	0.109
1044.80	0.102
1045.21	0.105
1045.63	0.112
1046.05	0.095
1046.47	0.110
1046.88	0.116
1047.30	0.122
1047.72	0.118
1048.13	0.089
1048.55	0.100
1048.97	0.119
1049.38	0.088
1049.80	0.089
1050.22	0.101
1050.63	0.093
1051.05	0.096
1051.47	0.086
1051.88	0.102
1052.30	0.099
1052.72	0.103
1053.13	0.135
1053.55	0.096
1053.97	0.102
1054.38	0.095
1054.80	0.115
1055.21	0.120
1055.63	0.128
1056.05	0.112
1056.46	0.116
1056.88	0.104
1057.29	0.095
1057.71	0.113
1058.13	0.084
1058.54	0.095
1058.96	0.124
1059.37	0.144
1059.79	0.133
1060.21	0.070
1060.62	0.101
1061.04	0.175
1061.45	0.067
1061.87	0.093
1062.28	0.121
1062.70	0.096
1063.12	0.080
1063.53	0.093
1063.95	0.114
1064.36	0.121
1064.78	0.164
1065.19	0.101
1065.61	0.107
1066.02	0.065
1066.44	0.067
1066.85	0.168
1067.27	0.175
1067.68	0.112
1068.10	0.136
1068.51	0.137
1068.93	0.098
1069.35	0.116
1069.76	0.121
1070.17	0.161
1070.59	0.132
1071.00	0.094
1071.42	0.127
1071.83	0.144
1072.25	0.136
1072.66	0.225
1073.08	0.157
1073.49	0.177
1073.91	0.295
1074.32	0.227
1074.74	0.200
1075.15	0.242
1075.57	0.157
1075.98	0.377
1076.40	0.072
1076.81	0.127
1077.22	0.219
1077.64	0.167
1078.05	0.046
1078.47	-0.020
1078.88	0.224
1079.30	0.153
1079.71	0.246
1080.12	0.281
1080.54	0.234
1080.95	0.067
1081.37	0.176
1081.78	0.251
1082.19	0.077
1082.61	0.056
1083.02	0.254
1083.44	0.183
1083.85	0.086
1084.26	0.072
1084.68	0.234
1085.09	-0.012
1085.50	0.310
1085.92	-0.000
1086.33	0.516
1086.74	0.247
1087.16	0.480
1087.57	0.255
1087.98	0.260
1088.40	0.348
1088.81	0.269
1089.22	0.033
1089.64	0.386
1090.05	-0.000
1090.46	0.052
1090.88	0.597
1091.29	0.097
1091.70	0.082
1092.12	0.446
1092.53	0.155
1092.94	0.248
1093.36	0.694
1093.77	-0.000
1094.18	0.849
1094.59	0.451
1095.01	0.185
1095.42	1.130
1095.83	1.027
1096.25	0.377
1096.66	0.712
1097.07	0.301
1097.48	0.951
1097.90	0.179
1098.31	-0.000
1098.72	0.254
1099.13	0.164
>>>>>End Processed Spectral Data<<<<<
