SpectraSuite Data File
++++++++++++++++++++++++++++++++++++
Date: Tue Jul 11 16:06:32 CEST 2017
User: IPCE
Dark Spectrum Present: Yes
Reference Spectrum Present: Yes
Number of Sampled Component Spectra: 1
Spectrometers: HR+C0708
Integration Time (usec): 1000 (HR+C0708)
Spectra Averaged: 10 (HR+C0708)
Boxcar Smoothing: 0 (HR+C0708)
Correct for Electrical Dark: No (HR+C0708)
Strobe/Lamp Enabled: No (HR+C0708)
Correct for Detector Non-linearity: No (HR+C0708)
Correct for Stray Light: No (HR+C0708)
Number of Pixels in Processed Spectrum: 2048
>>>>>Begin Processed Spectral Data<<<<<
188.76	0.065
189.23	-0.311
189.70	-0.083
190.17	0.690
190.64	-0.000
191.12	0.224
191.59	-0.010
192.06	0.082
192.53	0.202
193.01	0.338
193.48	0.564
193.95	0.480
194.42	-0.133
194.90	0.169
195.37	0.453
195.84	-0.000
196.31	0.115
196.78	0.051
197.26	0.338
197.73	0.285
198.20	0.140
198.67	0.240
199.14	0.085
199.62	0.018
200.09	0.429
200.56	0.293
201.03	0.111
201.50	0.118
201.97	0.206
202.45	0.546
202.92	0.216
203.39	0.222
203.86	0.450
204.33	0.267
204.80	0.167
205.28	0.447
205.75	0.196
206.22	0.208
206.69	0.322
207.16	0.269
207.63	0.328
208.11	0.350
208.58	0.229
209.05	0.381
209.52	0.437
209.99	0.168
210.46	0.262
210.93	0.276
211.41	0.314
211.88	0.212
212.35	0.300
212.82	0.298
213.29	0.286
213.76	0.405
214.23	0.401
214.70	0.246
215.18	0.221
215.65	0.253
216.12	0.335
216.59	0.240
217.06	0.312
217.53	0.351
218.00	0.401
218.47	0.311
218.94	0.222
219.41	0.433
219.89	0.391
220.36	0.394
220.83	0.506
221.30	0.360
221.77	0.262
222.24	0.351
222.71	0.627
223.18	0.498
223.65	0.413
224.12	0.545
224.59	0.532
225.06	0.532
225.54	0.497
226.01	0.709
226.48	0.689
226.95	0.567
227.42	0.731
227.89	0.886
228.36	0.894
228.83	0.880
229.30	0.767
229.77	0.907
230.24	1.071
230.71	1.007
231.18	1.028
231.65	1.196
232.12	1.207
232.59	1.263
233.06	1.371
233.53	1.333
234.00	1.458
234.47	1.450
234.94	1.625
235.41	1.534
235.88	1.589
236.35	1.582
236.82	1.666
237.29	1.607
237.76	1.749
238.23	1.801
238.70	1.856
239.17	1.847
239.64	1.988
240.11	2.014
240.58	1.909
241.05	2.018
241.52	2.007
241.99	2.072
242.46	1.923
242.93	2.053
243.40	2.043
243.87	2.071
244.34	2.117
244.81	2.063
245.28	2.158
245.75	2.156
246.22	2.148
246.69	2.147
247.16	2.222
247.63	2.114
248.10	2.220
248.57	2.127
249.04	2.118
249.51	2.207
249.98	2.134
250.45	2.255
250.92	2.093
251.39	2.058
251.85	2.009
252.32	1.898
252.79	1.781
253.26	1.780
253.73	1.671
254.20	1.540
254.67	1.494
255.14	1.431
255.61	1.382
256.08	1.327
256.55	1.259
257.02	1.213
257.49	1.173
257.95	1.128
258.42	1.099
258.89	1.059
259.36	1.036
259.83	1.002
260.30	0.977
260.77	0.954
261.24	0.934
261.71	0.911
262.17	0.889
262.64	0.875
263.11	0.848
263.58	0.846
264.05	0.823
264.52	0.806
264.99	0.793
265.46	0.780
265.92	0.766
266.39	0.758
266.86	0.743
267.33	0.728
267.80	0.719
268.27	0.709
268.74	0.701
269.20	0.688
269.67	0.678
270.14	0.671
270.61	0.662
271.08	0.650
271.55	0.648
272.01	0.636
272.48	0.628
272.95	0.623
273.42	0.614
273.89	0.610
274.36	0.601
274.82	0.596
275.29	0.592
275.76	0.585
276.23	0.583
276.70	0.578
277.16	0.574
277.63	0.572
278.10	0.563
278.57	0.565
279.04	0.559
279.50	0.556
279.97	0.551
280.44	0.549
280.91	0.549
281.38	0.544
281.84	0.542
282.31	0.541
282.78	0.544
283.25	0.537
283.72	0.539
284.18	0.536
284.65	0.536
285.12	0.533
285.59	0.536
286.05	0.533
286.52	0.534
286.99	0.532
287.46	0.533
287.92	0.531
288.39	0.535
288.86	0.534
289.33	0.533
289.79	0.529
290.26	0.527
290.73	0.530
291.20	0.523
291.66	0.522
292.13	0.521
292.60	0.512
293.07	0.511
293.53	0.507
294.00	0.503
294.47	0.495
294.93	0.493
295.40	0.485
295.87	0.480
296.34	0.470
296.80	0.461
297.27	0.455
297.74	0.449
298.20	0.439
298.67	0.436
299.14	0.427
299.60	0.417
300.07	0.413
300.54	0.406
301.01	0.396
301.47	0.389
301.94	0.381
302.41	0.376
302.87	0.369
303.34	0.362
303.81	0.357
304.27	0.347
304.74	0.341
305.21	0.337
305.67	0.327
306.14	0.327
306.61	0.317
307.07	0.315
307.54	0.307
308.01	0.300
308.47	0.300
308.94	0.293
309.40	0.292
309.87	0.286
310.34	0.283
310.80	0.282
311.27	0.276
311.74	0.272
312.20	0.268
312.67	0.269
313.13	0.263
313.60	0.262
314.07	0.262
314.53	0.258
315.00	0.257
315.47	0.255
315.93	0.252
316.40	0.254
316.86	0.250
317.33	0.250
317.80	0.245
318.26	0.244
318.73	0.241
319.19	0.242
319.66	0.240
320.13	0.238
320.59	0.236
321.06	0.232
321.52	0.235
321.99	0.234
322.45	0.232
322.92	0.229
323.39	0.228
323.85	0.226
324.32	0.225
324.78	0.225
325.25	0.222
325.71	0.219
326.18	0.218
326.64	0.216
327.11	0.216
327.58	0.216
328.04	0.214
328.51	0.210
328.97	0.213
329.44	0.210
329.90	0.208
330.37	0.204
330.83	0.205
331.30	0.204
331.76	0.198
332.23	0.199
332.69	0.196
333.16	0.195
333.62	0.193
334.09	0.190
334.56	0.192
335.02	0.186
335.49	0.182
335.95	0.183
336.42	0.180
336.88	0.179
337.35	0.177
337.81	0.177
338.28	0.176
338.74	0.177
339.20	0.172
339.67	0.173
340.13	0.171
340.60	0.171
341.06	0.167
341.53	0.166
341.99	0.166
342.46	0.167
342.92	0.165
343.39	0.163
343.85	0.162
344.32	0.164
344.78	0.161
345.25	0.157
345.71	0.160
346.17	0.161
346.64	0.159
347.10	0.156
347.57	0.155
348.03	0.156
348.50	0.154
348.96	0.151
349.43	0.155
349.89	0.151
350.35	0.150
350.82	0.150
351.28	0.149
351.75	0.146
352.21	0.147
352.67	0.142
353.14	0.143
353.60	0.141
354.07	0.136
354.53	0.142
355.00	0.136
355.46	0.133
355.92	0.132
356.39	0.134
356.85	0.130
357.31	0.125
357.78	0.130
358.24	0.123
358.71	0.122
359.17	0.117
359.63	0.115
360.10	0.116
360.56	0.112
361.03	0.108
361.49	0.108
361.95	0.105
362.42	0.099
362.88	0.098
363.34	0.095
363.81	0.095
364.27	0.090
364.73	0.090
365.20	0.086
365.66	0.084
366.12	0.080
366.59	0.081
367.05	0.081
367.51	0.078
367.98	0.075
368.44	0.078
368.90	0.074
369.37	0.076
369.83	0.072
370.29	0.073
370.76	0.076
371.22	0.071
371.68	0.072
372.15	0.071
372.61	0.070
373.07	0.071
373.54	0.071
374.00	0.070
374.46	0.070
374.92	0.067
375.39	0.070
375.85	0.069
376.31	0.068
376.78	0.069
377.24	0.068
377.70	0.068
378.16	0.069
378.63	0.067
379.09	0.066
379.55	0.066
380.01	0.066
380.48	0.067
380.94	0.066
381.40	0.062
381.87	0.064
382.33	0.064
382.79	0.065
383.25	0.066
383.72	0.065
384.18	0.065
384.64	0.061
385.10	0.065
385.56	0.063
386.03	0.062
386.49	0.062
386.95	0.063
387.41	0.061
387.88	0.063
388.34	0.065
388.80	0.062
389.26	0.062
389.72	0.062
390.19	0.063
390.65	0.061
391.11	0.062
391.57	0.063
392.04	0.061
392.50	0.060
392.96	0.061
393.42	0.061
393.88	0.062
394.34	0.061
394.81	0.060
395.27	0.058
395.73	0.057
396.19	0.061
396.65	0.061
397.12	0.059
397.58	0.056
398.04	0.059
398.50	0.058
398.96	0.059
399.42	0.057
399.89	0.061
400.35	0.057
400.81	0.059
401.27	0.061
401.73	0.059
402.19	0.056
402.65	0.057
403.12	0.056
403.58	0.056
404.04	0.054
404.50	0.055
404.96	0.056
405.42	0.056
405.88	0.054
406.34	0.055
406.81	0.055
407.27	0.054
407.73	0.053
408.19	0.050
408.65	0.054
409.11	0.054
409.57	0.054
410.03	0.056
410.49	0.054
410.96	0.052
411.42	0.052
411.88	0.051
412.34	0.052
412.80	0.051
413.26	0.053
413.72	0.049
414.18	0.052
414.64	0.051
415.10	0.051
415.56	0.050
416.02	0.049
416.48	0.049
416.95	0.049
417.41	0.049
417.87	0.047
418.33	0.050
418.79	0.051
419.25	0.051
419.71	0.049
420.17	0.049
420.63	0.048
421.09	0.049
421.55	0.049
422.01	0.046
422.47	0.050
422.93	0.048
423.39	0.049
423.85	0.051
424.31	0.046
424.77	0.047
425.23	0.048
425.69	0.047
426.15	0.048
426.61	0.049
427.07	0.048
427.53	0.049
427.99	0.050
428.45	0.049
428.91	0.048
429.37	0.048
429.83	0.046
430.29	0.048
430.75	0.046
431.21	0.045
431.67	0.048
432.13	0.047
432.59	0.047
433.05	0.046
433.51	0.048
433.97	0.049
434.43	0.045
434.89	0.045
435.35	0.049
435.81	0.044
436.27	0.044
436.73	0.044
437.19	0.047
437.65	0.043
438.11	0.047
438.57	0.046
439.03	0.043
439.48	0.047
439.94	0.045
440.40	0.045
440.86	0.047
441.32	0.043
441.78	0.044
442.24	0.044
442.70	0.044
443.16	0.044
443.62	0.043
444.08	0.047
444.54	0.046
444.99	0.046
445.45	0.045
445.91	0.044
446.37	0.046
446.83	0.043
447.29	0.045
447.75	0.045
448.21	0.044
448.67	0.047
449.12	0.041
449.58	0.041
450.04	0.043
450.50	0.044
450.96	0.041
451.42	0.044
451.88	0.045
452.34	0.045
452.79	0.044
453.25	0.047
453.71	0.043
454.17	0.040
454.63	0.046
455.09	0.045
455.55	0.045
456.00	0.042
456.46	0.044
456.92	0.047
457.38	0.046
457.84	0.041
458.30	0.044
458.75	0.046
459.21	0.044
459.67	0.041
460.13	0.043
460.59	0.044
461.04	0.043
461.50	0.041
461.96	0.044
462.42	0.043
462.88	0.042
463.33	0.044
463.79	0.045
464.25	0.043
464.71	0.044
465.17	0.045
465.62	0.043
466.08	0.044
466.54	0.044
467.00	0.045
467.46	0.043
467.91	0.045
468.37	0.044
468.83	0.047
469.29	0.045
469.74	0.044
470.20	0.044
470.66	0.046
471.12	0.045
471.57	0.046
472.03	0.044
472.49	0.047
472.95	0.043
473.40	0.047
473.86	0.045
474.32	0.044
474.78	0.045
475.23	0.045
475.69	0.041
476.15	0.046
476.60	0.045
477.06	0.045
477.52	0.044
477.98	0.046
478.43	0.046
478.89	0.048
479.35	0.045
479.80	0.046
480.26	0.044
480.72	0.046
481.18	0.045
481.63	0.043
482.09	0.045
482.55	0.046
483.00	0.043
483.46	0.046
483.92	0.045
484.37	0.045
484.83	0.047
485.29	0.049
485.74	0.048
486.20	0.045
486.66	0.047
487.11	0.047
487.57	0.047
488.03	0.048
488.48	0.046
488.94	0.046
489.40	0.046
489.85	0.045
490.31	0.045
490.77	0.049
491.22	0.046
491.68	0.045
492.13	0.047
492.59	0.045
493.05	0.047
493.50	0.045
493.96	0.045
494.42	0.046
494.87	0.048
495.33	0.047
495.78	0.044
496.24	0.045
496.70	0.048
497.15	0.048
497.61	0.047
498.06	0.047
498.52	0.047
498.98	0.046
499.43	0.045
499.89	0.045
500.34	0.046
500.80	0.047
501.25	0.047
501.71	0.046
502.17	0.046
502.62	0.046
503.08	0.044
503.53	0.047
503.99	0.046
504.44	0.047
504.90	0.045
505.36	0.044
505.81	0.045
506.27	0.046
506.72	0.046
507.18	0.046
507.63	0.047
508.09	0.046
508.54	0.047
509.00	0.045
509.45	0.046
509.91	0.047
510.36	0.047
510.82	0.048
511.27	0.044
511.73	0.046
512.19	0.043
512.64	0.047
513.10	0.047
513.55	0.046
514.01	0.044
514.46	0.044
514.92	0.046
515.37	0.046
515.83	0.045
516.28	0.048
516.73	0.045
517.19	0.043
517.64	0.043
518.10	0.048
518.55	0.046
519.01	0.044
519.46	0.046
519.92	0.045
520.37	0.046
520.83	0.046
521.28	0.045
521.74	0.044
522.19	0.044
522.65	0.044
523.10	0.045
523.55	0.045
524.01	0.046
524.46	0.046
524.92	0.048
525.37	0.046
525.83	0.046
526.28	0.045
526.73	0.045
527.19	0.046
527.64	0.048
528.10	0.046
528.55	0.046
529.01	0.046
529.46	0.048
529.91	0.048
530.37	0.047
530.82	0.046
531.28	0.049
531.73	0.046
532.18	0.048
532.64	0.046
533.09	0.049
533.54	0.047
534.00	0.047
534.45	0.048
534.91	0.045
535.36	0.050
535.81	0.047
536.27	0.050
536.72	0.048
537.17	0.050
537.63	0.051
538.08	0.051
538.54	0.050
538.99	0.050
539.44	0.054
539.90	0.049
540.35	0.050
540.80	0.049
541.26	0.050
541.71	0.053
542.16	0.051
542.62	0.052
543.07	0.051
543.52	0.051
543.98	0.055
544.43	0.055
544.88	0.055
545.34	0.056
545.79	0.058
546.24	0.055
546.69	0.054
547.15	0.054
547.60	0.057
548.05	0.057
548.51	0.056
548.96	0.055
549.41	0.058
549.86	0.059
550.32	0.059
550.77	0.060
551.22	0.060
551.68	0.058
552.13	0.058
552.58	0.062
553.03	0.060
553.49	0.062
553.94	0.062
554.39	0.063
554.84	0.064
555.30	0.063
555.75	0.063
556.20	0.067
556.65	0.063
557.11	0.066
557.56	0.067
558.01	0.066
558.46	0.067
558.92	0.067
559.37	0.068
559.82	0.069
560.27	0.069
560.72	0.068
561.18	0.070
561.63	0.072
562.08	0.074
562.53	0.072
562.99	0.071
563.44	0.072
563.89	0.073
564.34	0.075
564.79	0.075
565.25	0.076
565.70	0.076
566.15	0.078
566.60	0.078
567.05	0.079
567.50	0.081
567.96	0.081
568.41	0.081
568.86	0.081
569.31	0.084
569.76	0.083
570.21	0.083
570.67	0.082
571.12	0.086
571.57	0.087
572.02	0.088
572.47	0.089
572.92	0.088
573.37	0.088
573.83	0.090
574.28	0.092
574.73	0.090
575.18	0.092
575.63	0.094
576.08	0.094
576.53	0.095
576.98	0.095
577.44	0.096
577.89	0.097
578.34	0.099
578.79	0.102
579.24	0.100
579.69	0.101
580.14	0.105
580.59	0.104
581.04	0.106
581.49	0.105
581.95	0.107
582.40	0.108
582.85	0.109
583.30	0.110
583.75	0.112
584.20	0.114
584.65	0.114
585.10	0.117
585.55	0.116
586.00	0.120
586.45	0.122
586.90	0.122
587.35	0.123
587.80	0.125
588.25	0.126
588.71	0.127
589.16	0.130
589.61	0.132
590.06	0.133
590.51	0.135
590.96	0.135
591.41	0.138
591.86	0.142
592.31	0.142
592.76	0.144
593.21	0.144
593.66	0.146
594.11	0.150
594.56	0.151
595.01	0.153
595.46	0.155
595.91	0.154
596.36	0.159
596.81	0.160
597.26	0.161
597.71	0.163
598.16	0.166
598.61	0.167
599.06	0.169
599.51	0.171
599.96	0.172
600.41	0.174
600.86	0.177
601.31	0.178
601.76	0.181
602.21	0.180
602.65	0.183
603.10	0.185
603.55	0.186
604.00	0.189
604.45	0.190
604.90	0.192
605.35	0.193
605.80	0.192
606.25	0.193
606.70	0.198
607.15	0.199
607.60	0.199
608.05	0.201
608.50	0.203
608.95	0.204
609.39	0.207
609.84	0.208
610.29	0.206
610.74	0.209
611.19	0.210
611.64	0.210
612.09	0.212
612.54	0.214
612.99	0.214
613.44	0.215
613.88	0.218
614.33	0.216
614.78	0.217
615.23	0.218
615.68	0.218
616.13	0.223
616.58	0.221
617.03	0.219
617.47	0.218
617.92	0.224
618.37	0.223
618.82	0.222
619.27	0.224
619.72	0.224
620.17	0.226
620.61	0.226
621.06	0.227
621.51	0.228
621.96	0.225
622.41	0.230
622.86	0.227
623.30	0.229
623.75	0.229
624.20	0.232
624.65	0.235
625.10	0.234
625.54	0.233
625.99	0.236
626.44	0.236
626.89	0.237
627.34	0.238
627.78	0.240
628.23	0.242
628.68	0.242
629.13	0.243
629.58	0.243
630.02	0.245
630.47	0.246
630.92	0.248
631.37	0.251
631.81	0.252
632.26	0.254
632.71	0.256
633.16	0.257
633.61	0.257
634.05	0.260
634.50	0.262
634.95	0.263
635.40	0.265
635.84	0.267
636.29	0.269
636.74	0.270
637.18	0.274
637.63	0.277
638.08	0.276
638.53	0.280
638.97	0.283
639.42	0.288
639.87	0.289
640.32	0.291
640.76	0.295
641.21	0.297
641.66	0.299
642.10	0.301
642.55	0.304
643.00	0.307
643.44	0.310
643.89	0.314
644.34	0.317
644.79	0.317
645.23	0.322
645.68	0.326
646.13	0.329
646.57	0.331
647.02	0.334
647.47	0.336
647.91	0.336
648.36	0.342
648.81	0.346
649.25	0.348
649.70	0.348
650.15	0.353
650.59	0.356
651.04	0.359
651.48	0.359
651.93	0.365
652.38	0.366
652.82	0.366
653.27	0.372
653.72	0.374
654.16	0.375
654.61	0.376
655.06	0.377
655.50	0.382
655.95	0.381
656.39	0.384
656.84	0.386
657.29	0.388
657.73	0.389
658.18	0.392
658.62	0.392
659.07	0.395
659.52	0.397
659.96	0.399
660.41	0.398
660.85	0.395
661.30	0.398
661.74	0.401
662.19	0.403
662.64	0.398
663.08	0.403
663.53	0.403
663.97	0.405
664.42	0.402
664.86	0.403
665.31	0.402
665.75	0.399
666.20	0.398
666.65	0.400
667.09	0.399
667.54	0.395
667.98	0.394
668.43	0.392
668.87	0.391
669.32	0.389
669.76	0.387
670.21	0.385
670.65	0.380
671.10	0.376
671.54	0.369
671.99	0.366
672.43	0.360
672.88	0.357
673.32	0.351
673.77	0.342
674.21	0.340
674.66	0.336
675.10	0.329
675.55	0.323
675.99	0.315
676.44	0.311
676.88	0.300
677.33	0.294
677.77	0.288
678.22	0.283
678.66	0.275
679.11	0.266
679.55	0.259
679.99	0.252
680.44	0.243
680.88	0.235
681.33	0.228
681.77	0.224
682.22	0.213
682.66	0.207
683.11	0.201
683.55	0.193
683.99	0.186
684.44	0.180
684.88	0.172
685.33	0.165
685.77	0.162
686.21	0.156
686.66	0.147
687.10	0.144
687.55	0.137
687.99	0.137
688.44	0.129
688.88	0.124
689.32	0.120
689.77	0.112
690.21	0.108
690.65	0.107
691.10	0.099
691.54	0.096
691.99	0.094
692.43	0.090
692.87	0.086
693.32	0.084
693.76	0.082
694.20	0.079
694.65	0.077
695.09	0.074
695.53	0.071
695.98	0.069
696.42	0.064
696.86	0.062
697.31	0.062
697.75	0.058
698.19	0.057
698.64	0.054
699.08	0.054
699.52	0.051
699.97	0.051
700.41	0.050
700.85	0.048
701.30	0.045
701.74	0.042
702.18	0.045
702.63	0.040
703.07	0.042
703.51	0.041
703.96	0.041
704.40	0.039
704.84	0.037
705.28	0.038
705.73	0.036
706.17	0.034
706.61	0.034
707.06	0.034
707.50	0.033
707.94	0.033
708.38	0.030
708.83	0.032
709.27	0.029
709.71	0.031
710.15	0.028
710.60	0.029
711.04	0.028
711.48	0.028
711.92	0.031
712.37	0.028
712.81	0.028
713.25	0.028
713.69	0.026
714.13	0.024
714.58	0.025
715.02	0.024
715.46	0.024
715.90	0.024
716.35	0.025
716.79	0.027
717.23	0.024
717.67	0.024
718.11	0.025
718.56	0.026
719.00	0.023
719.44	0.025
719.88	0.027
720.32	0.026
720.76	0.023
721.21	0.024
721.65	0.025
722.09	0.024
722.53	0.025
722.97	0.026
723.41	0.023
723.86	0.022
724.30	0.025
724.74	0.025
725.18	0.026
725.62	0.023
726.06	0.028
726.50	0.023
726.95	0.023
727.39	0.024
727.83	0.024
728.27	0.023
728.71	0.024
729.15	0.025
729.59	0.026
730.03	0.023
730.48	0.025
730.92	0.024
731.36	0.024
731.80	0.026
732.24	0.024
732.68	0.029
733.12	0.026
733.56	0.026
734.00	0.027
734.44	0.028
734.89	0.023
735.33	0.029
735.77	0.030
736.21	0.028
736.65	0.030
737.09	0.027
737.53	0.030
737.97	0.029
738.41	0.029
738.85	0.027
739.29	0.026
739.73	0.028
740.17	0.029
740.61	0.029
741.05	0.029
741.49	0.028
741.93	0.029
742.37	0.031
742.81	0.029
743.26	0.027
743.70	0.028
744.14	0.027
744.58	0.029
745.02	0.030
745.46	0.026
745.90	0.028
746.34	0.028
746.78	0.029
747.22	0.030
747.66	0.030
748.10	0.028
748.54	0.028
748.98	0.028
749.42	0.029
749.86	0.028
750.29	0.029
750.73	0.028
751.17	0.026
751.61	0.029
752.05	0.027
752.49	0.028
752.93	0.029
753.37	0.029
753.81	0.027
754.25	0.024
754.69	0.028
755.13	0.030
755.57	0.025
756.01	0.027
756.45	0.026
756.89	0.028
757.33	0.030
757.77	0.026
758.21	0.029
758.64	0.029
759.08	0.026
759.52	0.030
759.96	0.029
760.40	0.025
760.84	0.028
761.28	0.028
761.72	0.027
762.16	0.026
762.60	0.025
763.03	0.028
763.47	0.027
763.91	0.025
764.35	0.025
764.79	0.029
765.23	0.025
765.67	0.027
766.11	0.026
766.54	0.028
766.98	0.026
767.42	0.025
767.86	0.027
768.30	0.030
768.74	0.027
769.17	0.030
769.61	0.030
770.05	0.026
770.49	0.025
770.93	0.027
771.37	0.025
771.80	0.029
772.24	0.027
772.68	0.028
773.12	0.024
773.56	0.029
774.00	0.027
774.43	0.028
774.87	0.026
775.31	0.028
775.75	0.027
776.19	0.027
776.62	0.031
777.06	0.025
777.50	0.029
777.94	0.029
778.37	0.025
778.81	0.029
779.25	0.027
779.69	0.027
780.13	0.032
780.56	0.028
781.00	0.028
781.44	0.028
781.88	0.030
782.31	0.030
782.75	0.029
783.19	0.032
783.63	0.031
784.06	0.025
784.50	0.028
784.94	0.030
785.37	0.028
785.81	0.028
786.25	0.026
786.69	0.029
787.12	0.031
787.56	0.031
788.00	0.024
788.43	0.027
788.87	0.028
789.31	0.026
789.75	0.030
790.18	0.026
790.62	0.029
791.06	0.029
791.49	0.027
791.93	0.026
792.37	0.024
792.80	0.026
793.24	0.027
793.68	0.027
794.11	0.030
794.55	0.024
794.99	0.030
795.42	0.026
795.86	0.027
796.30	0.028
796.73	0.024
797.17	0.027
797.61	0.026
798.04	0.023
798.48	0.023
798.91	0.026
799.35	0.027
799.79	0.028
800.22	0.025
800.66	0.024
801.10	0.025
801.53	0.024
801.97	0.026
802.40	0.030
802.84	0.030
803.28	0.024
803.71	0.024
804.15	0.028
804.58	0.025
805.02	0.024
805.46	0.026
805.89	0.024
806.33	0.025
806.76	0.025
807.20	0.026
807.63	0.027
808.07	0.030
808.51	0.025
808.94	0.028
809.38	0.028
809.81	0.024
810.25	0.026
810.68	0.025
811.12	0.026
811.55	0.025
811.99	0.028
812.42	0.022
812.86	0.026
813.29	0.027
813.73	0.029
814.17	0.024
814.60	0.028
815.04	0.028
815.47	0.029
815.91	0.025
816.34	0.028
816.78	0.028
817.21	0.022
817.65	0.030
818.08	0.031
818.52	0.027
818.95	0.028
819.39	0.030
819.82	0.031
820.25	0.031
820.69	0.025
821.12	0.029
821.56	0.031
821.99	0.023
822.43	0.027
822.86	0.026
823.30	0.024
823.73	0.020
824.17	0.026
824.60	0.026
825.04	0.029
825.47	0.026
825.90	0.030
826.34	0.025
826.77	0.026
827.21	0.030
827.64	0.027
828.08	0.033
828.51	0.031
828.94	0.027
829.38	0.034
829.81	0.031
830.25	0.033
830.68	0.034
831.11	0.037
831.55	0.033
831.98	0.034
832.42	0.035
832.85	0.030
833.28	0.029
833.72	0.034
834.15	0.039
834.58	0.034
835.02	0.033
835.45	0.033
835.88	0.034
836.32	0.031
836.75	0.034
837.19	0.035
837.62	0.035
838.05	0.038
838.49	0.038
838.92	0.034
839.35	0.031
839.79	0.031
840.22	0.036
840.65	0.036
841.09	0.038
841.52	0.035
841.95	0.038
842.39	0.034
842.82	0.034
843.25	0.038
843.68	0.035
844.12	0.031
844.55	0.035
844.98	0.033
845.42	0.032
845.85	0.037
846.28	0.037
846.71	0.040
847.15	0.036
847.58	0.039
848.01	0.036
848.45	0.036
848.88	0.038
849.31	0.036
849.74	0.039
850.18	0.034
850.61	0.035
851.04	0.037
851.47	0.038
851.91	0.033
852.34	0.036
852.77	0.044
853.20	0.035
853.64	0.035
854.07	0.041
854.50	0.040
854.93	0.036
855.36	0.041
855.80	0.037
856.23	0.043
856.66	0.038
857.09	0.036
857.52	0.039
857.96	0.040
858.39	0.034
858.82	0.037
859.25	0.038
859.68	0.039
860.12	0.038
860.55	0.037
860.98	0.038
861.41	0.035
861.84	0.036
862.27	0.039
862.71	0.040
863.14	0.037
863.57	0.043
864.00	0.043
864.43	0.034
864.86	0.037
865.30	0.042
865.73	0.033
866.16	0.041
866.59	0.043
867.02	0.042
867.45	0.038
867.88	0.040
868.31	0.035
868.75	0.035
869.18	0.040
869.61	0.037
870.04	0.045
870.47	0.041
870.90	0.041
871.33	0.040
871.76	0.048
872.19	0.038
872.62	0.040
873.06	0.048
873.49	0.052
873.92	0.037
874.35	0.045
874.78	0.042
875.21	0.041
875.64	0.042
876.07	0.047
876.50	0.046
876.93	0.047
877.36	0.046
877.79	0.051
878.22	0.043
878.65	0.048
879.08	0.052
879.51	0.048
879.94	0.043
880.37	0.043
880.80	0.041
881.23	0.044
881.67	0.047
882.10	0.038
882.53	0.045
882.96	0.041
883.39	0.037
883.82	0.049
884.25	0.052
884.68	0.044
885.11	0.046
885.54	0.052
885.97	0.050
886.39	0.046
886.82	0.046
887.25	0.050
887.68	0.050
888.11	0.047
888.54	0.054
888.97	0.047
889.40	0.042
889.83	0.052
890.26	0.053
890.69	0.052
891.12	0.048
891.55	0.049
891.98	0.052
892.41	0.055
892.84	0.051
893.27	0.049
893.70	0.049
894.13	0.052
894.56	0.050
894.98	0.056
895.41	0.052
895.84	0.051
896.27	0.053
896.70	0.052
897.13	0.057
897.56	0.057
897.99	0.053
898.42	0.056
898.85	0.060
899.27	0.048
899.70	0.053
900.13	0.056
900.56	0.053
900.99	0.059
901.42	0.053
901.85	0.054
902.28	0.052
902.70	0.057
903.13	0.053
903.56	0.049
903.99	0.052
904.42	0.055
904.85	0.049
905.27	0.060
905.70	0.055
906.13	0.060
906.56	0.063
906.99	0.055
907.42	0.057
907.84	0.051
908.27	0.057
908.70	0.058
909.13	0.057
909.56	0.052
909.98	0.058
910.41	0.058
910.84	0.054
911.27	0.052
911.70	0.054
912.12	0.057
912.55	0.059
912.98	0.057
913.41	0.059
913.84	0.059
914.26	0.058
914.69	0.058
915.12	0.055
915.55	0.060
915.97	0.058
916.40	0.058
916.83	0.059
917.26	0.053
917.68	0.056
918.11	0.057
918.54	0.059
918.97	0.054
919.39	0.058
919.82	0.061
920.25	0.057
920.67	0.057
921.10	0.053
921.53	0.059
921.96	0.060
922.38	0.058
922.81	0.063
923.24	0.062
923.66	0.058
924.09	0.061
924.52	0.067
924.94	0.063
925.37	0.065
925.80	0.069
926.22	0.069
926.65	0.065
927.08	0.064
927.50	0.074
927.93	0.073
928.36	0.066
928.78	0.071
929.21	0.077
929.64	0.076
930.06	0.074
930.49	0.074
930.92	0.071
931.34	0.076
931.77	0.075
932.20	0.077
932.62	0.080
933.05	0.079
933.47	0.083
933.90	0.087
934.33	0.078
934.75	0.081
935.18	0.087
935.61	0.087
936.03	0.083
936.46	0.089
936.88	0.095
937.31	0.093
937.73	0.094
938.16	0.092
938.59	0.098
939.01	0.097
939.44	0.104
939.86	0.097
940.29	0.105
940.71	0.107
941.14	0.109
941.57	0.107
941.99	0.112
942.42	0.120
942.84	0.115
943.27	0.110
943.69	0.113
944.12	0.121
944.54	0.112
944.97	0.118
945.39	0.118
945.82	0.126
946.24	0.132
946.67	0.124
947.09	0.133
947.52	0.138
947.94	0.137
948.37	0.134
948.79	0.139
949.22	0.149
949.64	0.149
950.07	0.146
950.49	0.148
950.92	0.157
951.34	0.161
951.77	0.160
952.19	0.165
952.62	0.165
953.04	0.168
953.47	0.172
953.89	0.173
954.32	0.181
954.74	0.176
955.17	0.192
955.59	0.182
956.01	0.186
956.44	0.190
956.86	0.197
957.29	0.194
957.71	0.198
958.14	0.199
958.56	0.209
958.98	0.202
959.41	0.202
959.83	0.208
960.26	0.215
960.68	0.213
961.10	0.213
961.53	0.217
961.95	0.221
962.38	0.222
962.80	0.222
963.22	0.220
963.65	0.216
964.07	0.220
964.50	0.222
964.92	0.222
965.34	0.212
965.77	0.226
966.19	0.227
966.61	0.219
967.04	0.219
967.46	0.231
967.88	0.221
968.31	0.223
968.73	0.229
969.15	0.230
969.58	0.226
970.00	0.227
970.42	0.226
970.85	0.234
971.27	0.223
971.69	0.228
972.12	0.236
972.54	0.233
972.96	0.229
973.39	0.228
973.81	0.232
974.23	0.233
974.65	0.233
975.08	0.233
975.50	0.231
975.92	0.228
976.35	0.233
976.77	0.234
977.19	0.229
977.61	0.232
978.04	0.244
978.46	0.240
978.88	0.231
979.30	0.229
979.73	0.236
980.15	0.237
980.57	0.229
980.99	0.227
981.42	0.234
981.84	0.232
982.26	0.236
982.68	0.232
983.11	0.233
983.53	0.230
983.95	0.229
984.37	0.231
984.79	0.232
985.22	0.231
985.64	0.228
986.06	0.225
986.48	0.223
986.90	0.219
987.33	0.231
987.75	0.224
988.17	0.219
988.59	0.223
989.01	0.221
989.43	0.223
989.86	0.223
990.28	0.224
990.70	0.227
991.12	0.219
991.54	0.219
991.96	0.222
992.39	0.226
992.81	0.220
993.23	0.220
993.65	0.217
994.07	0.218
994.49	0.209
994.91	0.213
995.34	0.212
995.76	0.216
996.18	0.206
996.60	0.213
997.02	0.213
997.44	0.204
997.86	0.217
998.28	0.211
998.70	0.212
999.12	0.205
999.55	0.215
999.97	0.211
1000.39	0.200
1000.81	0.213
1001.23	0.203
1001.65	0.207
1002.07	0.204
1002.49	0.205
1002.91	0.210
1003.33	0.202
1003.75	0.193
1004.17	0.198
1004.59	0.201
1005.01	0.193
1005.43	0.199
1005.85	0.194
1006.28	0.201
1006.70	0.188
1007.12	0.197
1007.54	0.189
1007.96	0.178
1008.38	0.188
1008.80	0.193
1009.22	0.188
1009.64	0.168
1010.06	0.191
1010.48	0.188
1010.90	0.183
1011.32	0.166
1011.74	0.178
1012.16	0.178
1012.58	0.171
1013.00	0.171
1013.42	0.180
1013.84	0.180
1014.26	0.164
1014.67	0.173
1015.09	0.171
1015.51	0.171
1015.93	0.175
1016.35	0.170
1016.77	0.174
1017.19	0.168
1017.61	0.173
1018.03	0.176
1018.45	0.171
1018.87	0.150
1019.29	0.163
1019.71	0.169
1020.13	0.156
1020.55	0.156
1020.97	0.154
1021.38	0.157
1021.80	0.151
1022.22	0.166
1022.64	0.154
1023.06	0.141
1023.48	0.145
1023.90	0.155
1024.32	0.147
1024.74	0.143
1025.15	0.155
1025.57	0.159
1025.99	0.158
1026.41	0.144
1026.83	0.135
1027.25	0.164
1027.67	0.136
1028.08	0.121
1028.50	0.145
1028.92	0.150
1029.34	0.133
1029.76	0.134
1030.18	0.134
1030.60	0.137
1031.01	0.146
1031.43	0.136
1031.85	0.142
1032.27	0.140
1032.69	0.120
1033.10	0.129
1033.52	0.138
1033.94	0.138
1034.36	0.146
1034.78	0.126
1035.19	0.125
1035.61	0.119
1036.03	0.129
1036.45	0.129
1036.87	0.126
1037.28	0.112
1037.70	0.126
1038.12	0.126
1038.54	0.121
1038.95	0.111
1039.37	0.138
1039.79	0.115
1040.21	0.100
1040.62	0.122
1041.04	0.118
1041.46	0.099
1041.88	0.117
1042.29	0.116
1042.71	0.121
1043.13	0.076
1043.55	0.092
1043.96	0.103
1044.38	0.090
1044.80	0.083
1045.21	0.102
1045.63	0.113
1046.05	0.087
1046.47	0.101
1046.88	0.106
1047.30	0.108
1047.72	0.109
1048.13	0.100
1048.55	0.106
1048.97	0.110
1049.38	0.089
1049.80	0.098
1050.22	0.074
1050.63	0.081
1051.05	0.104
1051.47	0.083
1051.88	0.092
1052.30	0.073
1052.72	0.100
1053.13	0.124
1053.55	0.080
1053.97	0.104
1054.38	0.102
1054.80	0.102
1055.21	0.092
1055.63	0.090
1056.05	0.103
1056.46	0.129
1056.88	0.084
1057.29	0.107
1057.71	0.090
1058.13	0.081
1058.54	0.073
1058.96	0.103
1059.37	0.121
1059.79	0.071
1060.21	0.058
1060.62	0.124
1061.04	0.124
1061.45	0.083
1061.87	0.118
1062.28	0.122
1062.70	0.127
1063.12	0.109
1063.53	0.129
1063.95	0.099
1064.36	0.071
1064.78	0.075
1065.19	0.134
1065.61	0.125
1066.02	0.126
1066.44	0.092
1066.85	0.108
1067.27	0.099
1067.68	0.043
1068.10	0.132
1068.51	0.122
1068.93	0.115
1069.35	0.166
1069.76	0.151
1070.17	0.052
1070.59	0.118
1071.00	0.076
1071.42	0.145
1071.83	0.097
1072.25	0.152
1072.66	0.251
1073.08	0.128
1073.49	0.063
1073.91	0.156
1074.32	0.077
1074.74	0.116
1075.15	0.134
1075.57	0.130
1075.98	0.224
1076.40	0.031
1076.81	0.127
1077.22	0.298
1077.64	0.041
1078.05	0.157
1078.47	-0.050
1078.88	0.193
1079.30	0.089
1079.71	0.230
1080.12	0.415
1080.54	0.178
1080.95	0.036
1081.37	-0.003
1081.78	0.236
1082.19	0.038
1082.61	-0.003
1083.02	0.176
1083.44	0.368
1083.85	0.223
1084.26	0.127
1084.68	0.079
1085.09	0.062
1085.50	0.106
1085.92	1.095
1086.33	0.162
1086.74	0.101
1087.16	0.141
1087.57	0.353
1087.98	0.229
1088.40	0.158
1088.81	0.229
1089.22	0.474
1089.64	-0.003
1090.05	-0.154
1090.46	0.134
1090.88	0.462
1091.29	-0.018
1091.70	0.763
1092.12	0.317
1092.53	0.473
1092.94	0.193
1093.36	0.192
1093.77	0.503
1094.18	0.240
1094.59	0.055
1095.01	0.277
1095.42	0.653
1095.83	-0.052
1096.25	0.218
1096.66	0.652
1097.07	0.177
1097.48	0.173
1097.90	-0.025
1098.31	-0.000
1098.72	-0.041
1099.13	0.010
>>>>>End Processed Spectral Data<<<<<
