SpectraSuite Data File
++++++++++++++++++++++++++++++++++++
Date: Tue Jul 11 16:07:02 CEST 2017
User: IPCE
Dark Spectrum Present: Yes
Reference Spectrum Present: Yes
Number of Sampled Component Spectra: 1
Spectrometers: HR+C0708
Integration Time (usec): 1000 (HR+C0708)
Spectra Averaged: 10 (HR+C0708)
Boxcar Smoothing: 0 (HR+C0708)
Correct for Electrical Dark: No (HR+C0708)
Strobe/Lamp Enabled: No (HR+C0708)
Correct for Detector Non-linearity: No (HR+C0708)
Correct for Stray Light: No (HR+C0708)
Number of Pixels in Processed Spectrum: 2048
>>>>>Begin Processed Spectral Data<<<<<
188.76	0.036
189.23	-0.185
189.70	-0.295
190.17	-0.162
190.64	0.970
191.12	0.388
191.59	0.049
192.06	0.465
192.53	0.198
193.01	-0.090
193.48	0.439
193.95	0.146
194.42	0.336
194.90	0.223
195.37	0.107
195.84	0.344
196.31	0.802
196.78	0.073
197.26	0.546
197.73	0.420
198.20	-0.115
198.67	0.091
199.14	0.206
199.62	-0.011
200.09	0.107
200.56	0.301
201.03	0.247
201.50	0.206
201.97	0.139
202.45	0.360
202.92	0.412
203.39	0.400
203.86	0.322
204.33	0.287
204.80	0.292
205.28	0.320
205.75	0.317
206.22	0.344
206.69	0.510
207.16	0.175
207.63	0.234
208.11	0.280
208.58	0.293
209.05	0.386
209.52	0.434
209.99	0.191
210.46	0.166
210.93	0.249
211.41	0.314
211.88	0.279
212.35	0.307
212.82	0.270
213.29	0.340
213.76	0.398
214.23	0.284
214.70	0.264
215.18	0.226
215.65	0.211
216.12	0.264
216.59	0.317
217.06	0.403
217.53	0.248
218.00	0.281
218.47	0.341
218.94	0.229
219.41	0.339
219.89	0.465
220.36	0.313
220.83	0.350
221.30	0.299
221.77	0.426
222.24	0.497
222.71	0.396
223.18	0.431
223.65	0.527
224.12	0.387
224.59	0.516
225.06	0.513
225.54	0.462
226.01	0.699
226.48	0.685
226.95	0.599
227.42	0.797
227.89	0.655
228.36	0.805
228.83	0.934
229.30	0.872
229.77	0.886
230.24	1.105
230.71	1.053
231.18	1.038
231.65	1.273
232.12	1.182
232.59	1.263
233.06	1.373
233.53	1.444
234.00	1.468
234.47	1.410
234.94	1.672
235.41	1.595
235.88	1.552
236.35	1.552
236.82	1.699
237.29	1.701
237.76	1.815
238.23	1.730
238.70	1.875
239.17	1.893
239.64	1.843
240.11	1.943
240.58	2.006
241.05	1.996
241.52	1.974
241.99	2.008
242.46	1.946
242.93	1.994
243.40	1.999
243.87	2.148
244.34	2.283
244.81	2.120
245.28	2.135
245.75	2.135
246.22	2.108
246.69	2.071
247.16	2.188
247.63	2.131
248.10	2.221
248.57	2.173
249.04	2.197
249.51	2.214
249.98	2.083
250.45	2.451
250.92	2.217
251.39	2.097
251.85	1.921
252.32	1.980
252.79	1.776
253.26	1.750
253.73	1.706
254.20	1.595
254.67	1.499
255.14	1.428
255.61	1.391
256.08	1.337
256.55	1.266
257.02	1.227
257.49	1.196
257.95	1.142
258.42	1.108
258.89	1.074
259.36	1.044
259.83	1.015
260.30	0.991
260.77	0.966
261.24	0.937
261.71	0.920
262.17	0.908
262.64	0.889
263.11	0.865
263.58	0.847
264.05	0.836
264.52	0.818
264.99	0.802
265.46	0.786
265.92	0.774
266.39	0.769
266.86	0.749
267.33	0.736
267.80	0.734
268.27	0.717
268.74	0.707
269.20	0.702
269.67	0.693
270.14	0.681
270.61	0.672
271.08	0.662
271.55	0.656
272.01	0.646
272.48	0.639
272.95	0.635
273.42	0.627
273.89	0.622
274.36	0.615
274.82	0.608
275.29	0.600
275.76	0.601
276.23	0.594
276.70	0.588
277.16	0.584
277.63	0.583
278.10	0.575
278.57	0.576
279.04	0.568
279.50	0.565
279.97	0.564
280.44	0.561
280.91	0.558
281.38	0.555
281.84	0.556
282.31	0.549
282.78	0.551
283.25	0.549
283.72	0.551
284.18	0.550
284.65	0.549
285.12	0.544
285.59	0.545
286.05	0.543
286.52	0.545
286.99	0.546
287.46	0.545
287.92	0.546
288.39	0.544
288.86	0.540
289.33	0.543
289.79	0.540
290.26	0.537
290.73	0.539
291.20	0.534
291.66	0.534
292.13	0.528
292.60	0.525
293.07	0.523
293.53	0.517
294.00	0.509
294.47	0.501
294.93	0.502
295.40	0.494
295.87	0.489
296.34	0.480
296.80	0.475
297.27	0.466
297.74	0.460
298.20	0.453
298.67	0.445
299.14	0.438
299.60	0.428
300.07	0.419
300.54	0.415
301.01	0.404
301.47	0.399
301.94	0.388
302.41	0.384
302.87	0.380
303.34	0.368
303.81	0.364
304.27	0.357
304.74	0.354
305.21	0.348
305.67	0.337
306.14	0.331
306.61	0.326
307.07	0.320
307.54	0.316
308.01	0.309
308.47	0.308
308.94	0.301
309.40	0.298
309.87	0.294
310.34	0.291
310.80	0.289
311.27	0.284
311.74	0.283
312.20	0.277
312.67	0.279
313.13	0.275
313.60	0.272
314.07	0.270
314.53	0.265
315.00	0.267
315.47	0.264
315.93	0.259
316.40	0.263
316.86	0.260
317.33	0.256
317.80	0.251
318.26	0.253
318.73	0.252
319.19	0.247
319.66	0.250
320.13	0.244
320.59	0.243
321.06	0.241
321.52	0.243
321.99	0.240
322.45	0.238
322.92	0.237
323.39	0.236
323.85	0.237
324.32	0.234
324.78	0.232
325.25	0.226
325.71	0.225
326.18	0.223
326.64	0.225
327.11	0.224
327.58	0.223
328.04	0.218
328.51	0.222
328.97	0.219
329.44	0.218
329.90	0.215
330.37	0.212
330.83	0.212
331.30	0.211
331.76	0.207
332.23	0.208
332.69	0.202
333.16	0.203
333.62	0.199
334.09	0.198
334.56	0.198
335.02	0.195
335.49	0.191
335.95	0.191
336.42	0.185
336.88	0.185
337.35	0.185
337.81	0.185
338.28	0.181
338.74	0.182
339.20	0.182
339.67	0.182
340.13	0.180
340.60	0.178
341.06	0.175
341.53	0.173
341.99	0.174
342.46	0.175
342.92	0.172
343.39	0.171
343.85	0.169
344.32	0.168
344.78	0.168
345.25	0.165
345.71	0.168
346.17	0.167
346.64	0.164
347.10	0.166
347.57	0.161
348.03	0.159
348.50	0.157
348.96	0.156
349.43	0.159
349.89	0.158
350.35	0.161
350.82	0.156
351.28	0.157
351.75	0.154
352.21	0.154
352.67	0.152
353.14	0.147
353.60	0.145
354.07	0.143
354.53	0.142
355.00	0.136
355.46	0.138
355.92	0.136
356.39	0.141
356.85	0.132
357.31	0.134
357.78	0.134
358.24	0.128
358.71	0.125
359.17	0.125
359.63	0.119
360.10	0.119
360.56	0.116
361.03	0.115
361.49	0.113
361.95	0.107
362.42	0.105
362.88	0.104
363.34	0.099
363.81	0.100
364.27	0.096
364.73	0.093
365.20	0.089
365.66	0.090
366.12	0.085
366.59	0.086
367.05	0.085
367.51	0.081
367.98	0.079
368.44	0.081
368.90	0.079
369.37	0.076
369.83	0.076
370.29	0.076
370.76	0.078
371.22	0.076
371.68	0.074
372.15	0.074
372.61	0.075
373.07	0.075
373.54	0.074
374.00	0.072
374.46	0.074
374.92	0.069
375.39	0.072
375.85	0.073
376.31	0.070
376.78	0.071
377.24	0.069
377.70	0.070
378.16	0.070
378.63	0.069
379.09	0.070
379.55	0.071
380.01	0.070
380.48	0.069
380.94	0.071
381.40	0.068
381.87	0.067
382.33	0.067
382.79	0.070
383.25	0.067
383.72	0.069
384.18	0.066
384.64	0.067
385.10	0.064
385.56	0.067
386.03	0.065
386.49	0.067
386.95	0.065
387.41	0.066
387.88	0.065
388.34	0.068
388.80	0.065
389.26	0.064
389.72	0.064
390.19	0.066
390.65	0.064
391.11	0.066
391.57	0.064
392.04	0.065
392.50	0.062
392.96	0.064
393.42	0.063
393.88	0.067
394.34	0.064
394.81	0.062
395.27	0.059
395.73	0.061
396.19	0.064
396.65	0.064
397.12	0.062
397.58	0.061
398.04	0.060
398.50	0.062
398.96	0.061
399.42	0.060
399.89	0.059
400.35	0.059
400.81	0.062
401.27	0.061
401.73	0.058
402.19	0.059
402.65	0.059
403.12	0.058
403.58	0.058
404.04	0.057
404.50	0.057
404.96	0.056
405.42	0.057
405.88	0.057
406.34	0.057
406.81	0.056
407.27	0.056
407.73	0.056
408.19	0.054
408.65	0.054
409.11	0.056
409.57	0.054
410.03	0.057
410.49	0.054
410.96	0.054
411.42	0.056
411.88	0.054
412.34	0.056
412.80	0.056
413.26	0.054
413.72	0.053
414.18	0.056
414.64	0.049
415.10	0.053
415.56	0.051
416.02	0.049
416.48	0.049
416.95	0.051
417.41	0.053
417.87	0.047
418.33	0.051
418.79	0.051
419.25	0.052
419.71	0.052
420.17	0.051
420.63	0.051
421.09	0.050
421.55	0.051
422.01	0.047
422.47	0.052
422.93	0.052
423.39	0.050
423.85	0.054
424.31	0.050
424.77	0.048
425.23	0.050
425.69	0.051
426.15	0.051
426.61	0.051
427.07	0.051
427.53	0.050
427.99	0.051
428.45	0.049
428.91	0.049
429.37	0.050
429.83	0.050
430.29	0.049
430.75	0.050
431.21	0.050
431.67	0.050
432.13	0.047
432.59	0.049
433.05	0.048
433.51	0.049
433.97	0.051
434.43	0.048
434.89	0.049
435.35	0.050
435.81	0.046
436.27	0.046
436.73	0.046
437.19	0.048
437.65	0.045
438.11	0.049
438.57	0.048
439.03	0.048
439.48	0.048
439.94	0.047
440.40	0.048
440.86	0.048
441.32	0.045
441.78	0.048
442.24	0.043
442.70	0.046
443.16	0.047
443.62	0.046
444.08	0.047
444.54	0.049
444.99	0.049
445.45	0.046
445.91	0.045
446.37	0.045
446.83	0.048
447.29	0.047
447.75	0.043
448.21	0.046
448.67	0.047
449.12	0.044
449.58	0.044
450.04	0.043
450.50	0.043
450.96	0.044
451.42	0.049
451.88	0.048
452.34	0.045
452.79	0.043
453.25	0.047
453.71	0.044
454.17	0.045
454.63	0.046
455.09	0.044
455.55	0.046
456.00	0.046
456.46	0.043
456.92	0.046
457.38	0.049
457.84	0.043
458.30	0.046
458.75	0.047
459.21	0.044
459.67	0.045
460.13	0.046
460.59	0.048
461.04	0.045
461.50	0.046
461.96	0.045
462.42	0.047
462.88	0.043
463.33	0.045
463.79	0.047
464.25	0.045
464.71	0.047
465.17	0.046
465.62	0.045
466.08	0.046
466.54	0.044
467.00	0.047
467.46	0.046
467.91	0.047
468.37	0.047
468.83	0.048
469.29	0.045
469.74	0.047
470.20	0.047
470.66	0.047
471.12	0.048
471.57	0.047
472.03	0.046
472.49	0.047
472.95	0.047
473.40	0.045
473.86	0.047
474.32	0.046
474.78	0.046
475.23	0.047
475.69	0.047
476.15	0.049
476.60	0.047
477.06	0.047
477.52	0.047
477.98	0.048
478.43	0.048
478.89	0.050
479.35	0.046
479.80	0.047
480.26	0.045
480.72	0.050
481.18	0.046
481.63	0.047
482.09	0.049
482.55	0.045
483.00	0.047
483.46	0.047
483.92	0.049
484.37	0.049
484.83	0.047
485.29	0.050
485.74	0.049
486.20	0.047
486.66	0.048
487.11	0.048
487.57	0.048
488.03	0.049
488.48	0.046
488.94	0.049
489.40	0.048
489.85	0.047
490.31	0.046
490.77	0.049
491.22	0.047
491.68	0.048
492.13	0.048
492.59	0.048
493.05	0.048
493.50	0.048
493.96	0.046
494.42	0.050
494.87	0.049
495.33	0.050
495.78	0.047
496.24	0.047
496.70	0.050
497.15	0.047
497.61	0.048
498.06	0.049
498.52	0.048
498.98	0.049
499.43	0.048
499.89	0.047
500.34	0.047
500.80	0.050
501.25	0.048
501.71	0.048
502.17	0.048
502.62	0.048
503.08	0.045
503.53	0.048
503.99	0.048
504.44	0.049
504.90	0.047
505.36	0.047
505.81	0.046
506.27	0.047
506.72	0.049
507.18	0.049
507.63	0.047
508.09	0.048
508.54	0.048
509.00	0.048
509.45	0.048
509.91	0.046
510.36	0.047
510.82	0.048
511.27	0.047
511.73	0.048
512.19	0.046
512.64	0.049
513.10	0.047
513.55	0.048
514.01	0.046
514.46	0.047
514.92	0.047
515.37	0.048
515.83	0.045
516.28	0.049
516.73	0.045
517.19	0.045
517.64	0.046
518.10	0.047
518.55	0.048
519.01	0.046
519.46	0.046
519.92	0.047
520.37	0.048
520.83	0.047
521.28	0.047
521.74	0.047
522.19	0.048
522.65	0.047
523.10	0.047
523.55	0.046
524.01	0.048
524.46	0.046
524.92	0.048
525.37	0.048
525.83	0.049
526.28	0.046
526.73	0.048
527.19	0.049
527.64	0.052
528.10	0.048
528.55	0.047
529.01	0.047
529.46	0.049
529.91	0.049
530.37	0.048
530.82	0.047
531.28	0.049
531.73	0.047
532.18	0.050
532.64	0.048
533.09	0.049
533.54	0.049
534.00	0.049
534.45	0.050
534.91	0.048
535.36	0.050
535.81	0.049
536.27	0.050
536.72	0.050
537.17	0.050
537.63	0.051
538.08	0.052
538.54	0.050
538.99	0.051
539.44	0.054
539.90	0.052
540.35	0.048
540.80	0.050
541.26	0.051
541.71	0.052
542.16	0.052
542.62	0.054
543.07	0.055
543.52	0.054
543.98	0.055
544.43	0.055
544.88	0.055
545.34	0.057
545.79	0.057
546.24	0.057
546.69	0.054
547.15	0.055
547.60	0.059
548.05	0.057
548.51	0.058
548.96	0.057
549.41	0.062
549.86	0.060
550.32	0.061
550.77	0.060
551.22	0.062
551.68	0.059
552.13	0.060
552.58	0.061
553.03	0.060
553.49	0.062
553.94	0.063
554.39	0.065
554.84	0.065
555.30	0.065
555.75	0.064
556.20	0.067
556.65	0.067
557.11	0.066
557.56	0.068
558.01	0.067
558.46	0.070
558.92	0.072
559.37	0.068
559.82	0.072
560.27	0.071
560.72	0.071
561.18	0.072
561.63	0.074
562.08	0.074
562.53	0.073
562.99	0.072
563.44	0.073
563.89	0.074
564.34	0.077
564.79	0.078
565.25	0.078
565.70	0.076
566.15	0.079
566.60	0.077
567.05	0.080
567.50	0.080
567.96	0.081
568.41	0.083
568.86	0.082
569.31	0.083
569.76	0.086
570.21	0.084
570.67	0.084
571.12	0.087
571.57	0.086
572.02	0.089
572.47	0.088
572.92	0.089
573.37	0.088
573.83	0.092
574.28	0.093
574.73	0.091
575.18	0.093
575.63	0.096
576.08	0.094
576.53	0.093
576.98	0.097
577.44	0.097
577.89	0.098
578.34	0.100
578.79	0.103
579.24	0.100
579.69	0.103
580.14	0.105
580.59	0.105
581.04	0.107
581.49	0.111
581.95	0.110
582.40	0.111
582.85	0.110
583.30	0.111
583.75	0.112
584.20	0.115
584.65	0.115
585.10	0.115
585.55	0.118
586.00	0.122
586.45	0.121
586.90	0.123
587.35	0.124
587.80	0.127
588.25	0.128
588.71	0.128
589.16	0.131
589.61	0.133
590.06	0.135
590.51	0.136
590.96	0.137
591.41	0.139
591.86	0.141
592.31	0.143
592.76	0.144
593.21	0.146
593.66	0.147
594.11	0.151
594.56	0.152
595.01	0.155
595.46	0.155
595.91	0.155
596.36	0.159
596.81	0.160
597.26	0.163
597.71	0.165
598.16	0.164
598.61	0.169
599.06	0.171
599.51	0.171
599.96	0.172
600.41	0.174
600.86	0.179
601.31	0.179
601.76	0.181
602.21	0.181
602.65	0.185
603.10	0.187
603.55	0.188
604.00	0.189
604.45	0.191
604.90	0.194
605.35	0.195
605.80	0.194
606.25	0.193
606.70	0.198
607.15	0.202
607.60	0.201
608.05	0.202
608.50	0.206
608.95	0.207
609.39	0.206
609.84	0.208
610.29	0.205
610.74	0.211
611.19	0.211
611.64	0.213
612.09	0.214
612.54	0.215
612.99	0.215
613.44	0.217
613.88	0.220
614.33	0.217
614.78	0.219
615.23	0.219
615.68	0.219
616.13	0.221
616.58	0.220
617.03	0.220
617.47	0.224
617.92	0.225
618.37	0.225
618.82	0.226
619.27	0.225
619.72	0.224
620.17	0.225
620.61	0.228
621.06	0.229
621.51	0.229
621.96	0.230
622.41	0.229
622.86	0.229
623.30	0.231
623.75	0.232
624.20	0.234
624.65	0.237
625.10	0.234
625.54	0.234
625.99	0.236
626.44	0.239
626.89	0.236
627.34	0.239
627.78	0.242
628.23	0.243
628.68	0.243
629.13	0.242
629.58	0.244
630.02	0.246
630.47	0.246
630.92	0.249
631.37	0.251
631.81	0.253
632.26	0.254
632.71	0.255
633.16	0.259
633.61	0.259
634.05	0.261
634.50	0.263
634.95	0.263
635.40	0.266
635.84	0.269
636.29	0.270
636.74	0.272
637.18	0.276
637.63	0.276
638.08	0.279
638.53	0.282
638.97	0.285
639.42	0.287
639.87	0.288
640.32	0.292
640.76	0.297
641.21	0.298
641.66	0.300
642.10	0.304
642.55	0.305
643.00	0.309
643.44	0.311
643.89	0.314
644.34	0.321
644.79	0.322
645.23	0.323
645.68	0.326
646.13	0.329
646.57	0.332
647.02	0.336
647.47	0.336
647.91	0.340
648.36	0.345
648.81	0.347
649.25	0.349
649.70	0.352
650.15	0.354
650.59	0.356
651.04	0.361
651.48	0.360
651.93	0.363
652.38	0.367
652.82	0.368
653.27	0.372
653.72	0.377
654.16	0.376
654.61	0.378
655.06	0.382
655.50	0.381
655.95	0.382
656.39	0.386
656.84	0.389
657.29	0.389
657.73	0.391
658.18	0.390
658.62	0.394
659.07	0.396
659.52	0.397
659.96	0.397
660.41	0.399
660.85	0.399
661.30	0.399
661.74	0.405
662.19	0.404
662.64	0.403
663.08	0.403
663.53	0.407
663.97	0.406
664.42	0.406
664.86	0.403
665.31	0.404
665.75	0.402
666.20	0.400
666.65	0.401
667.09	0.401
667.54	0.399
667.98	0.396
668.43	0.394
668.87	0.393
669.32	0.392
669.76	0.388
670.21	0.384
670.65	0.381
671.10	0.377
671.54	0.371
671.99	0.371
672.43	0.363
672.88	0.359
673.32	0.352
673.77	0.346
674.21	0.342
674.66	0.336
675.10	0.329
675.55	0.324
675.99	0.319
676.44	0.311
676.88	0.302
677.33	0.294
677.77	0.287
678.22	0.284
678.66	0.278
679.11	0.268
679.55	0.263
679.99	0.253
680.44	0.245
680.88	0.239
681.33	0.230
681.77	0.225
682.22	0.214
682.66	0.208
683.11	0.202
683.55	0.195
683.99	0.190
684.44	0.182
684.88	0.175
685.33	0.169
685.77	0.161
686.21	0.158
686.66	0.150
687.10	0.145
687.55	0.138
687.99	0.136
688.44	0.130
688.88	0.125
689.32	0.122
689.77	0.115
690.21	0.110
690.65	0.107
691.10	0.100
691.54	0.099
691.99	0.094
692.43	0.091
692.87	0.088
693.32	0.084
693.76	0.082
694.20	0.079
694.65	0.078
695.09	0.073
695.53	0.072
695.98	0.069
696.42	0.063
696.86	0.062
697.31	0.064
697.75	0.060
698.19	0.056
698.64	0.055
699.08	0.055
699.52	0.052
699.97	0.051
700.41	0.050
700.85	0.047
701.30	0.048
701.74	0.043
702.18	0.046
702.63	0.041
703.07	0.041
703.51	0.040
703.96	0.040
704.40	0.041
704.84	0.037
705.28	0.038
705.73	0.037
706.17	0.034
706.61	0.037
707.06	0.033
707.50	0.034
707.94	0.032
708.38	0.030
708.83	0.033
709.27	0.029
709.71	0.032
710.15	0.029
710.60	0.028
711.04	0.030
711.48	0.027
711.92	0.030
712.37	0.030
712.81	0.029
713.25	0.027
713.69	0.029
714.13	0.025
714.58	0.026
715.02	0.027
715.46	0.024
715.90	0.025
716.35	0.024
716.79	0.027
717.23	0.025
717.67	0.026
718.11	0.023
718.56	0.025
719.00	0.023
719.44	0.022
719.88	0.026
720.32	0.026
720.76	0.023
721.21	0.026
721.65	0.026
722.09	0.025
722.53	0.026
722.97	0.026
723.41	0.026
723.86	0.023
724.30	0.025
724.74	0.024
725.18	0.028
725.62	0.026
726.06	0.025
726.50	0.024
726.95	0.027
727.39	0.026
727.83	0.026
728.27	0.024
728.71	0.026
729.15	0.025
729.59	0.027
730.03	0.027
730.48	0.026
730.92	0.026
731.36	0.026
731.80	0.024
732.24	0.026
732.68	0.028
733.12	0.026
733.56	0.025
734.00	0.027
734.44	0.028
734.89	0.027
735.33	0.029
735.77	0.028
736.21	0.028
736.65	0.028
737.09	0.028
737.53	0.030
737.97	0.030
738.41	0.029
738.85	0.028
739.29	0.029
739.73	0.028
740.17	0.026
740.61	0.031
741.05	0.031
741.49	0.026
741.93	0.029
742.37	0.027
742.81	0.029
743.26	0.029
743.70	0.030
744.14	0.029
744.58	0.028
745.02	0.028
745.46	0.029
745.90	0.029
746.34	0.029
746.78	0.029
747.22	0.030
747.66	0.027
748.10	0.029
748.54	0.029
748.98	0.027
749.42	0.030
749.86	0.029
750.29	0.031
750.73	0.028
751.17	0.027
751.61	0.029
752.05	0.029
752.49	0.028
752.93	0.028
753.37	0.028
753.81	0.029
754.25	0.027
754.69	0.028
755.13	0.029
755.57	0.026
756.01	0.026
756.45	0.028
756.89	0.029
757.33	0.032
757.77	0.027
758.21	0.029
758.64	0.030
759.08	0.029
759.52	0.026
759.96	0.030
760.40	0.028
760.84	0.026
761.28	0.029
761.72	0.026
762.16	0.026
762.60	0.028
763.03	0.027
763.47	0.024
763.91	0.026
764.35	0.025
764.79	0.030
765.23	0.026
765.67	0.026
766.11	0.031
766.54	0.028
766.98	0.027
767.42	0.026
767.86	0.027
768.30	0.028
768.74	0.027
769.17	0.030
769.61	0.028
770.05	0.026
770.49	0.025
770.93	0.027
771.37	0.026
771.80	0.031
772.24	0.027
772.68	0.027
773.12	0.029
773.56	0.028
774.00	0.028
774.43	0.028
774.87	0.025
775.31	0.029
775.75	0.030
776.19	0.027
776.62	0.030
777.06	0.025
777.50	0.029
777.94	0.029
778.37	0.027
778.81	0.029
779.25	0.029
779.69	0.025
780.13	0.028
780.56	0.026
781.00	0.027
781.44	0.031
781.88	0.028
782.31	0.030
782.75	0.030
783.19	0.028
783.63	0.031
784.06	0.025
784.50	0.027
784.94	0.029
785.37	0.029
785.81	0.028
786.25	0.025
786.69	0.028
787.12	0.029
787.56	0.029
788.00	0.023
788.43	0.022
788.87	0.027
789.31	0.024
789.75	0.027
790.18	0.028
790.62	0.028
791.06	0.030
791.49	0.029
791.93	0.024
792.37	0.024
792.80	0.027
793.24	0.030
793.68	0.026
794.11	0.027
794.55	0.024
794.99	0.028
795.42	0.026
795.86	0.027
796.30	0.029
796.73	0.028
797.17	0.029
797.61	0.026
798.04	0.024
798.48	0.028
798.91	0.028
799.35	0.026
799.79	0.027
800.22	0.026
800.66	0.024
801.10	0.032
801.53	0.029
801.97	0.025
802.40	0.026
802.84	0.028
803.28	0.023
803.71	0.025
804.15	0.029
804.58	0.025
805.02	0.022
805.46	0.026
805.89	0.028
806.33	0.028
806.76	0.026
807.20	0.032
807.63	0.027
808.07	0.028
808.51	0.024
808.94	0.026
809.38	0.027
809.81	0.024
810.25	0.025
810.68	0.029
811.12	0.026
811.55	0.022
811.99	0.030
812.42	0.028
812.86	0.031
813.29	0.026
813.73	0.028
814.17	0.026
814.60	0.025
815.04	0.028
815.47	0.027
815.91	0.030
816.34	0.028
816.78	0.033
817.21	0.024
817.65	0.027
818.08	0.030
818.52	0.023
818.95	0.026
819.39	0.031
819.82	0.030
820.25	0.031
820.69	0.025
821.12	0.028
821.56	0.033
821.99	0.026
822.43	0.030
822.86	0.027
823.30	0.027
823.73	0.023
824.17	0.028
824.60	0.023
825.04	0.028
825.47	0.028
825.90	0.031
826.34	0.028
826.77	0.030
827.21	0.025
827.64	0.026
828.08	0.036
828.51	0.029
828.94	0.031
829.38	0.033
829.81	0.029
830.25	0.026
830.68	0.035
831.11	0.033
831.55	0.033
831.98	0.034
832.42	0.035
832.85	0.034
833.28	0.032
833.72	0.031
834.15	0.038
834.58	0.035
835.02	0.028
835.45	0.032
835.88	0.032
836.32	0.036
836.75	0.036
837.19	0.035
837.62	0.037
838.05	0.038
838.49	0.037
838.92	0.034
839.35	0.034
839.79	0.031
840.22	0.035
840.65	0.035
841.09	0.038
841.52	0.034
841.95	0.036
842.39	0.033
842.82	0.032
843.25	0.035
843.68	0.040
844.12	0.033
844.55	0.035
844.98	0.031
845.42	0.032
845.85	0.039
846.28	0.038
846.71	0.039
847.15	0.037
847.58	0.036
848.01	0.032
848.45	0.038
848.88	0.039
849.31	0.040
849.74	0.035
850.18	0.036
850.61	0.039
851.04	0.038
851.47	0.039
851.91	0.043
852.34	0.038
852.77	0.043
853.20	0.039
853.64	0.039
854.07	0.034
854.50	0.043
854.93	0.038
855.36	0.038
855.80	0.036
856.23	0.040
856.66	0.038
857.09	0.035
857.52	0.037
857.96	0.038
858.39	0.039
858.82	0.038
859.25	0.041
859.68	0.040
860.12	0.041
860.55	0.040
860.98	0.041
861.41	0.036
861.84	0.034
862.27	0.040
862.71	0.043
863.14	0.038
863.57	0.036
864.00	0.040
864.43	0.036
864.86	0.033
865.30	0.042
865.73	0.041
866.16	0.046
866.59	0.042
867.02	0.040
867.45	0.047
867.88	0.038
868.31	0.036
868.75	0.040
869.18	0.044
869.61	0.037
870.04	0.039
870.47	0.044
870.90	0.044
871.33	0.039
871.76	0.047
872.19	0.041
872.62	0.042
873.06	0.046
873.49	0.047
873.92	0.045
874.35	0.038
874.78	0.045
875.21	0.043
875.64	0.045
876.07	0.046
876.50	0.044
876.93	0.040
877.36	0.045
877.79	0.046
878.22	0.045
878.65	0.048
879.08	0.050
879.51	0.041
879.94	0.046
880.37	0.043
880.80	0.038
881.23	0.047
881.67	0.042
882.10	0.038
882.53	0.050
882.96	0.049
883.39	0.045
883.82	0.042
884.25	0.050
884.68	0.047
885.11	0.048
885.54	0.049
885.97	0.042
886.39	0.049
886.82	0.047
887.25	0.054
887.68	0.045
888.11	0.048
888.54	0.048
888.97	0.048
889.40	0.053
889.83	0.053
890.26	0.050
890.69	0.047
891.12	0.054
891.55	0.054
891.98	0.051
892.41	0.053
892.84	0.054
893.27	0.045
893.70	0.054
894.13	0.056
894.56	0.053
894.98	0.052
895.41	0.047
895.84	0.051
896.27	0.050
896.70	0.055
897.13	0.054
897.56	0.059
897.99	0.053
898.42	0.054
898.85	0.060
899.27	0.053
899.70	0.055
900.13	0.062
900.56	0.058
900.99	0.055
901.42	0.054
901.85	0.058
902.28	0.052
902.70	0.057
903.13	0.054
903.56	0.054
903.99	0.059
904.42	0.057
904.85	0.053
905.27	0.054
905.70	0.057
906.13	0.058
906.56	0.060
906.99	0.055
907.42	0.055
907.84	0.055
908.27	0.056
908.70	0.055
909.13	0.058
909.56	0.059
909.98	0.060
910.41	0.058
910.84	0.059
911.27	0.055
911.70	0.054
912.12	0.054
912.55	0.059
912.98	0.057
913.41	0.058
913.84	0.055
914.26	0.056
914.69	0.060
915.12	0.057
915.55	0.059
915.97	0.055
916.40	0.055
916.83	0.055
917.26	0.054
917.68	0.059
918.11	0.057
918.54	0.056
918.97	0.057
919.39	0.057
919.82	0.060
920.25	0.059
920.67	0.055
921.10	0.057
921.53	0.058
921.96	0.063
922.38	0.060
922.81	0.065
923.24	0.063
923.66	0.059
924.09	0.060
924.52	0.064
924.94	0.063
925.37	0.064
925.80	0.066
926.22	0.067
926.65	0.072
927.08	0.067
927.50	0.070
927.93	0.071
928.36	0.071
928.78	0.071
929.21	0.076
929.64	0.076
930.06	0.075
930.49	0.075
930.92	0.075
931.34	0.078
931.77	0.074
932.20	0.077
932.62	0.077
933.05	0.078
933.47	0.081
933.90	0.085
934.33	0.078
934.75	0.083
935.18	0.083
935.61	0.085
936.03	0.086
936.46	0.086
936.88	0.095
937.31	0.097
937.73	0.097
938.16	0.089
938.59	0.100
939.01	0.098
939.44	0.099
939.86	0.098
940.29	0.104
940.71	0.107
941.14	0.106
941.57	0.111
941.99	0.110
942.42	0.122
942.84	0.119
943.27	0.111
943.69	0.120
944.12	0.120
944.54	0.124
944.97	0.123
945.39	0.120
945.82	0.128
946.24	0.128
946.67	0.137
947.09	0.137
947.52	0.123
947.94	0.137
948.37	0.137
948.79	0.142
949.22	0.147
949.64	0.150
950.07	0.150
950.49	0.149
950.92	0.160
951.34	0.166
951.77	0.162
952.19	0.164
952.62	0.166
953.04	0.173
953.47	0.166
953.89	0.176
954.32	0.178
954.74	0.178
955.17	0.186
955.59	0.185
956.01	0.192
956.44	0.189
956.86	0.191
957.29	0.199
957.71	0.203
958.14	0.202
958.56	0.205
958.98	0.207
959.41	0.211
959.83	0.206
960.26	0.216
960.68	0.217
961.10	0.214
961.53	0.216
961.95	0.218
962.38	0.216
962.80	0.220
963.22	0.220
963.65	0.220
964.07	0.220
964.50	0.226
964.92	0.220
965.34	0.215
965.77	0.229
966.19	0.223
966.61	0.216
967.04	0.225
967.46	0.230
967.88	0.228
968.31	0.228
968.73	0.232
969.15	0.231
969.58	0.227
970.00	0.230
970.42	0.229
970.85	0.229
971.27	0.226
971.69	0.231
972.12	0.230
972.54	0.236
972.96	0.235
973.39	0.228
973.81	0.237
974.23	0.231
974.65	0.233
975.08	0.230
975.50	0.233
975.92	0.235
976.35	0.234
976.77	0.230
977.19	0.233
977.61	0.237
978.04	0.239
978.46	0.238
978.88	0.230
979.30	0.228
979.73	0.232
980.15	0.231
980.57	0.234
980.99	0.225
981.42	0.229
981.84	0.234
982.26	0.232
982.68	0.232
983.11	0.235
983.53	0.232
983.95	0.236
984.37	0.226
984.79	0.236
985.22	0.230
985.64	0.224
986.06	0.227
986.48	0.224
986.90	0.222
987.33	0.229
987.75	0.231
988.17	0.227
988.59	0.223
989.01	0.223
989.43	0.229
989.86	0.229
990.28	0.221
990.70	0.216
991.12	0.221
991.54	0.222
991.96	0.221
992.39	0.228
992.81	0.217
993.23	0.216
993.65	0.219
994.07	0.221
994.49	0.212
994.91	0.214
995.34	0.206
995.76	0.213
996.18	0.209
996.60	0.217
997.02	0.215
997.44	0.212
997.86	0.214
998.28	0.209
998.70	0.210
999.12	0.212
999.55	0.210
999.97	0.205
1000.39	0.206
1000.81	0.206
1001.23	0.207
1001.65	0.205
1002.07	0.198
1002.49	0.201
1002.91	0.199
1003.33	0.201
1003.75	0.204
1004.17	0.202
1004.59	0.199
1005.01	0.205
1005.43	0.189
1005.85	0.196
1006.28	0.205
1006.70	0.193
1007.12	0.195
1007.54	0.185
1007.96	0.187
1008.38	0.188
1008.80	0.189
1009.22	0.189
1009.64	0.178
1010.06	0.189
1010.48	0.179
1010.90	0.184
1011.32	0.181
1011.74	0.177
1012.16	0.175
1012.58	0.171
1013.00	0.166
1013.42	0.174
1013.84	0.178
1014.26	0.169
1014.67	0.176
1015.09	0.185
1015.51	0.175
1015.93	0.174
1016.35	0.171
1016.77	0.171
1017.19	0.168
1017.61	0.166
1018.03	0.170
1018.45	0.175
1018.87	0.168
1019.29	0.165
1019.71	0.171
1020.13	0.158
1020.55	0.160
1020.97	0.148
1021.38	0.136
1021.80	0.164
1022.22	0.159
1022.64	0.142
1023.06	0.146
1023.48	0.144
1023.90	0.150
1024.32	0.164
1024.74	0.147
1025.15	0.151
1025.57	0.143
1025.99	0.154
1026.41	0.149
1026.83	0.139
1027.25	0.152
1027.67	0.151
1028.08	0.139
1028.50	0.145
1028.92	0.141
1029.34	0.145
1029.76	0.126
1030.18	0.126
1030.60	0.136
1031.01	0.139
1031.43	0.126
1031.85	0.117
1032.27	0.130
1032.69	0.107
1033.10	0.124
1033.52	0.128
1033.94	0.126
1034.36	0.142
1034.78	0.119
1035.19	0.124
1035.61	0.141
1036.03	0.126
1036.45	0.134
1036.87	0.140
1037.28	0.126
1037.70	0.114
1038.12	0.122
1038.54	0.116
1038.95	0.110
1039.37	0.137
1039.79	0.111
1040.21	0.110
1040.62	0.119
1041.04	0.124
1041.46	0.110
1041.88	0.097
1042.29	0.105
1042.71	0.133
1043.13	0.075
1043.55	0.108
1043.96	0.116
1044.38	0.104
1044.80	0.116
1045.21	0.095
1045.63	0.112
1046.05	0.093
1046.47	0.105
1046.88	0.098
1047.30	0.125
1047.72	0.089
1048.13	0.102
1048.55	0.100
1048.97	0.114
1049.38	0.095
1049.80	0.106
1050.22	0.092
1050.63	0.096
1051.05	0.113
1051.47	0.068
1051.88	0.120
1052.30	0.099
1052.72	0.096
1053.13	0.097
1053.55	0.094
1053.97	0.103
1054.38	0.088
1054.80	0.095
1055.21	0.102
1055.63	0.093
1056.05	0.058
1056.46	0.123
1056.88	0.119
1057.29	0.069
1057.71	0.097
1058.13	0.077
1058.54	0.088
1058.96	0.088
1059.37	0.140
1059.79	0.078
1060.21	0.052
1060.62	0.080
1061.04	0.138
1061.45	0.066
1061.87	0.105
1062.28	0.119
1062.70	0.115
1063.12	0.104
1063.53	0.095
1063.95	0.106
1064.36	0.145
1064.78	0.061
1065.19	0.129
1065.61	0.126
1066.02	0.069
1066.44	0.054
1066.85	0.127
1067.27	0.118
1067.68	0.155
1068.10	0.141
1068.51	0.132
1068.93	0.128
1069.35	0.072
1069.76	0.132
1070.17	0.167
1070.59	0.067
1071.00	0.069
1071.42	0.102
1071.83	0.134
1072.25	0.113
1072.66	0.144
1073.08	0.170
1073.49	0.110
1073.91	0.132
1074.32	0.219
1074.74	0.278
1075.15	0.082
1075.57	0.182
1075.98	0.205
1076.40	-0.011
1076.81	-0.020
1077.22	0.183
1077.64	0.131
1078.05	0.029
1078.47	-0.083
1078.88	0.153
1079.30	0.237
1079.71	0.270
1080.12	0.168
1080.54	0.078
1080.95	0.021
1081.37	-0.048
1081.78	0.170
1082.19	0.170
1082.61	0.334
1083.02	0.097
1083.44	0.192
1083.85	0.078
1084.26	-0.066
1084.68	-0.035
1085.09	0.086
1085.50	0.151
1085.92	0.243
1086.33	0.252
1086.74	0.086
1087.16	0.091
1087.57	0.255
1087.98	0.333
1088.40	0.224
1088.81	0.176
1089.22	0.150
1089.64	0.354
1090.05	-0.044
1090.46	0.094
1090.88	0.360
1091.29	0.212
1091.70	0.256
1092.12	0.051
1092.53	0.219
1092.94	0.236
1093.36	-0.129
1093.77	0.503
1094.18	0.398
1094.59	0.117
1095.01	0.269
1095.42	0.468
1095.83	0.445
1096.25	0.205
1096.66	0.156
1097.07	0.274
1097.48	0.381
1097.90	-0.072
1098.31	0.513
1098.72	0.289
1099.13	0.113
>>>>>End Processed Spectral Data<<<<<
