SpectraSuite Data File
++++++++++++++++++++++++++++++++++++
Date: Tue Jul 11 16:35:32 CEST 2017
User: IPCE
Dark Spectrum Present: Yes
Reference Spectrum Present: Yes
Number of Sampled Component Spectra: 1
Spectrometers: HR+C0708
Integration Time (usec): 1000 (HR+C0708)
Spectra Averaged: 10 (HR+C0708)
Boxcar Smoothing: 0 (HR+C0708)
Correct for Electrical Dark: No (HR+C0708)
Strobe/Lamp Enabled: No (HR+C0708)
Correct for Detector Non-linearity: No (HR+C0708)
Correct for Stray Light: No (HR+C0708)
Number of Pixels in Processed Spectrum: 2048
>>>>>Begin Processed Spectral Data<<<<<
188.76	0.314
189.23	-0.083
189.70	0.012
190.17	0.270
190.64	-0.000
191.12	0.410
191.59	0.227
192.06	0.383
192.53	0.235
193.01	-0.000
193.48	-0.000
193.95	0.423
194.42	0.160
194.90	0.451
195.37	-0.117
195.84	0.331
196.31	1.170
196.78	0.285
197.26	0.313
197.73	0.278
198.20	0.041
198.67	0.109
199.14	0.020
199.62	0.266
200.09	0.249
200.56	0.201
201.03	0.118
201.50	0.188
201.97	0.141
202.45	0.458
202.92	0.275
203.39	0.282
203.86	0.311
204.33	0.309
204.80	0.386
205.28	0.251
205.75	0.250
206.22	0.199
206.69	0.430
207.16	0.144
207.63	0.203
208.11	0.417
208.58	0.232
209.05	0.334
209.52	0.336
209.99	0.272
210.46	0.241
210.93	0.207
211.41	0.225
211.88	0.263
212.35	0.250
212.82	0.254
213.29	0.194
213.76	0.329
214.23	0.193
214.70	0.243
215.18	0.224
215.65	0.253
216.12	0.299
216.59	0.255
217.06	0.307
217.53	0.294
218.00	0.425
218.47	0.351
218.94	0.224
219.41	0.346
219.89	0.401
220.36	0.335
220.83	0.437
221.30	0.381
221.77	0.431
222.24	0.433
222.71	0.488
223.18	0.394
223.65	0.420
224.12	0.473
224.59	0.518
225.06	0.463
225.54	0.580
226.01	0.545
226.48	0.574
226.95	0.624
227.42	0.848
227.89	0.722
228.36	0.753
228.83	0.848
229.30	0.869
229.77	1.008
230.24	1.134
230.71	0.988
231.18	1.110
231.65	1.187
232.12	1.218
232.59	1.251
233.06	1.234
233.53	1.394
234.00	1.338
234.47	1.404
234.94	1.500
235.41	1.386
235.88	1.574
236.35	1.509
236.82	1.754
237.29	1.715
237.76	1.798
238.23	1.722
238.70	1.753
239.17	1.829
239.64	1.807
240.11	1.991
240.58	1.929
241.05	2.046
241.52	1.970
241.99	1.941
242.46	1.980
242.93	2.060
243.40	1.987
243.87	2.182
244.34	2.117
244.81	2.046
245.28	2.101
245.75	2.138
246.22	2.220
246.69	2.178
247.16	2.190
247.63	2.124
248.10	2.163
248.57	2.118
249.04	2.120
249.51	2.224
249.98	2.067
250.45	2.191
250.92	2.090
251.39	2.046
251.85	2.030
252.32	1.853
252.79	1.762
253.26	1.689
253.73	1.579
254.20	1.504
254.67	1.446
255.14	1.359
255.61	1.301
256.08	1.258
256.55	1.183
257.02	1.147
257.49	1.104
257.95	1.064
258.42	1.030
258.89	0.994
259.36	0.972
259.83	0.940
260.30	0.915
260.77	0.894
261.24	0.867
261.71	0.848
262.17	0.830
262.64	0.814
263.11	0.791
263.58	0.779
264.05	0.756
264.52	0.742
264.99	0.731
265.46	0.711
265.92	0.700
266.39	0.689
266.86	0.674
267.33	0.662
267.80	0.659
268.27	0.644
268.74	0.637
269.20	0.623
269.67	0.618
270.14	0.606
270.61	0.595
271.08	0.590
271.55	0.578
272.01	0.568
272.48	0.565
272.95	0.556
273.42	0.552
273.89	0.546
274.36	0.536
274.82	0.533
275.29	0.528
275.76	0.522
276.23	0.517
276.70	0.509
277.16	0.504
277.63	0.503
278.10	0.495
278.57	0.494
279.04	0.489
279.50	0.484
279.97	0.484
280.44	0.480
280.91	0.477
281.38	0.474
281.84	0.471
282.31	0.470
282.78	0.470
283.25	0.466
283.72	0.467
284.18	0.467
284.65	0.461
285.12	0.459
285.59	0.459
286.05	0.456
286.52	0.456
286.99	0.455
287.46	0.454
287.92	0.451
288.39	0.452
288.86	0.449
289.33	0.451
289.79	0.447
290.26	0.446
290.73	0.447
291.20	0.437
291.66	0.440
292.13	0.435
292.60	0.432
293.07	0.430
293.53	0.425
294.00	0.417
294.47	0.414
294.93	0.409
295.40	0.405
295.87	0.396
296.34	0.392
296.80	0.387
297.27	0.377
297.74	0.371
298.20	0.366
298.67	0.360
299.14	0.352
299.60	0.343
300.07	0.338
300.54	0.329
301.01	0.324
301.47	0.317
301.94	0.314
302.41	0.305
302.87	0.299
303.34	0.293
303.81	0.291
304.27	0.284
304.74	0.277
305.21	0.273
305.67	0.268
306.14	0.260
306.61	0.255
307.07	0.253
307.54	0.247
308.01	0.245
308.47	0.242
308.94	0.234
309.40	0.232
309.87	0.229
310.34	0.226
310.80	0.227
311.27	0.220
311.74	0.217
312.20	0.216
312.67	0.214
313.13	0.215
313.60	0.208
314.07	0.208
314.53	0.206
315.00	0.206
315.47	0.204
315.93	0.199
316.40	0.202
316.86	0.200
317.33	0.197
317.80	0.194
318.26	0.193
318.73	0.192
319.19	0.191
319.66	0.191
320.13	0.188
320.59	0.188
321.06	0.185
321.52	0.185
321.99	0.185
322.45	0.185
322.92	0.180
323.39	0.179
323.85	0.181
324.32	0.179
324.78	0.176
325.25	0.171
325.71	0.172
326.18	0.170
326.64	0.170
327.11	0.171
327.58	0.169
328.04	0.169
328.51	0.166
328.97	0.168
329.44	0.166
329.90	0.162
330.37	0.164
330.83	0.159
331.30	0.161
331.76	0.159
332.23	0.158
332.69	0.154
333.16	0.153
333.62	0.153
334.09	0.149
334.56	0.150
335.02	0.146
335.49	0.144
335.95	0.144
336.42	0.141
336.88	0.137
337.35	0.138
337.81	0.140
338.28	0.138
338.74	0.137
339.20	0.136
339.67	0.137
340.13	0.133
340.60	0.133
341.06	0.131
341.53	0.130
341.99	0.131
342.46	0.127
342.92	0.128
343.39	0.127
343.85	0.124
344.32	0.124
344.78	0.123
345.25	0.121
345.71	0.125
346.17	0.122
346.64	0.121
347.10	0.121
347.57	0.120
348.03	0.119
348.50	0.116
348.96	0.114
349.43	0.118
349.89	0.118
350.35	0.115
350.82	0.116
351.28	0.113
351.75	0.113
352.21	0.114
352.67	0.111
353.14	0.111
353.60	0.111
354.07	0.106
354.53	0.108
355.00	0.109
355.46	0.102
355.92	0.104
356.39	0.107
356.85	0.102
357.31	0.104
357.78	0.107
358.24	0.102
358.71	0.102
359.17	0.100
359.63	0.096
360.10	0.097
360.56	0.095
361.03	0.092
361.49	0.094
361.95	0.093
362.42	0.089
362.88	0.092
363.34	0.090
363.81	0.088
364.27	0.085
364.73	0.087
365.20	0.086
365.66	0.086
366.12	0.082
366.59	0.083
367.05	0.084
367.51	0.082
367.98	0.079
368.44	0.082
368.90	0.078
369.37	0.080
369.83	0.078
370.29	0.078
370.76	0.079
371.22	0.076
371.68	0.077
372.15	0.074
372.61	0.076
373.07	0.079
373.54	0.077
374.00	0.077
374.46	0.077
374.92	0.073
375.39	0.076
375.85	0.076
376.31	0.074
376.78	0.076
377.24	0.073
377.70	0.075
378.16	0.074
378.63	0.074
379.09	0.072
379.55	0.072
380.01	0.074
380.48	0.072
380.94	0.074
381.40	0.071
381.87	0.071
382.33	0.070
382.79	0.073
383.25	0.069
383.72	0.072
384.18	0.071
384.64	0.071
385.10	0.070
385.56	0.071
386.03	0.070
386.49	0.069
386.95	0.069
387.41	0.067
387.88	0.069
388.34	0.070
388.80	0.069
389.26	0.068
389.72	0.066
390.19	0.068
390.65	0.068
391.11	0.069
391.57	0.069
392.04	0.068
392.50	0.065
392.96	0.068
393.42	0.068
393.88	0.068
394.34	0.066
394.81	0.067
395.27	0.063
395.73	0.064
396.19	0.066
396.65	0.066
397.12	0.066
397.58	0.063
398.04	0.066
398.50	0.065
398.96	0.067
399.42	0.066
399.89	0.066
400.35	0.061
400.81	0.067
401.27	0.065
401.73	0.063
402.19	0.062
402.65	0.064
403.12	0.063
403.58	0.064
404.04	0.061
404.50	0.062
404.96	0.062
405.42	0.062
405.88	0.061
406.34	0.061
406.81	0.061
407.27	0.062
407.73	0.060
408.19	0.062
408.65	0.060
409.11	0.063
409.57	0.059
410.03	0.062
410.49	0.059
410.96	0.059
411.42	0.060
411.88	0.058
412.34	0.056
412.80	0.060
413.26	0.058
413.72	0.056
414.18	0.059
414.64	0.057
415.10	0.058
415.56	0.059
416.02	0.054
416.48	0.054
416.95	0.055
417.41	0.057
417.87	0.054
418.33	0.055
418.79	0.055
419.25	0.057
419.71	0.055
420.17	0.056
420.63	0.054
421.09	0.055
421.55	0.057
422.01	0.052
422.47	0.057
422.93	0.054
423.39	0.055
423.85	0.056
424.31	0.052
424.77	0.052
425.23	0.054
425.69	0.056
426.15	0.056
426.61	0.057
427.07	0.055
427.53	0.056
427.99	0.056
428.45	0.055
428.91	0.054
429.37	0.054
429.83	0.055
430.29	0.055
430.75	0.055
431.21	0.053
431.67	0.054
432.13	0.052
432.59	0.052
433.05	0.051
433.51	0.053
433.97	0.057
434.43	0.052
434.89	0.050
435.35	0.052
435.81	0.052
436.27	0.052
436.73	0.053
437.19	0.053
437.65	0.050
438.11	0.053
438.57	0.054
439.03	0.050
439.48	0.051
439.94	0.052
440.40	0.051
440.86	0.052
441.32	0.047
441.78	0.053
442.24	0.051
442.70	0.050
443.16	0.051
443.62	0.049
444.08	0.052
444.54	0.054
444.99	0.052
445.45	0.053
445.91	0.051
446.37	0.051
446.83	0.051
447.29	0.052
447.75	0.049
448.21	0.051
448.67	0.052
449.12	0.047
449.58	0.048
450.04	0.049
450.50	0.045
450.96	0.050
451.42	0.049
451.88	0.050
452.34	0.049
452.79	0.049
453.25	0.050
453.71	0.048
454.17	0.048
454.63	0.050
455.09	0.048
455.55	0.049
456.00	0.047
456.46	0.050
456.92	0.050
457.38	0.051
457.84	0.048
458.30	0.050
458.75	0.049
459.21	0.048
459.67	0.051
460.13	0.049
460.59	0.050
461.04	0.049
461.50	0.050
461.96	0.049
462.42	0.050
462.88	0.049
463.33	0.048
463.79	0.049
464.25	0.049
464.71	0.051
465.17	0.049
465.62	0.049
466.08	0.048
466.54	0.048
467.00	0.049
467.46	0.049
467.91	0.050
468.37	0.049
468.83	0.050
469.29	0.051
469.74	0.052
470.20	0.051
470.66	0.050
471.12	0.049
471.57	0.049
472.03	0.048
472.49	0.049
472.95	0.049
473.40	0.050
473.86	0.051
474.32	0.050
474.78	0.050
475.23	0.051
475.69	0.048
476.15	0.052
476.60	0.049
477.06	0.048
477.52	0.050
477.98	0.050
478.43	0.053
478.89	0.052
479.35	0.052
479.80	0.053
480.26	0.050
480.72	0.050
481.18	0.049
481.63	0.049
482.09	0.050
482.55	0.050
483.00	0.050
483.46	0.050
483.92	0.049
484.37	0.053
484.83	0.050
485.29	0.052
485.74	0.052
486.20	0.051
486.66	0.050
487.11	0.051
487.57	0.051
488.03	0.052
488.48	0.050
488.94	0.053
489.40	0.050
489.85	0.050
490.31	0.050
490.77	0.052
491.22	0.049
491.68	0.051
492.13	0.050
492.59	0.050
493.05	0.050
493.50	0.050
493.96	0.047
494.42	0.052
494.87	0.051
495.33	0.049
495.78	0.048
496.24	0.048
496.70	0.051
497.15	0.050
497.61	0.049
498.06	0.052
498.52	0.051
498.98	0.052
499.43	0.048
499.89	0.049
500.34	0.049
500.80	0.050
501.25	0.047
501.71	0.050
502.17	0.051
502.62	0.049
503.08	0.048
503.53	0.050
503.99	0.050
504.44	0.049
504.90	0.048
505.36	0.048
505.81	0.048
506.27	0.049
506.72	0.050
507.18	0.051
507.63	0.051
508.09	0.051
508.54	0.050
509.00	0.051
509.45	0.049
509.91	0.051
510.36	0.050
510.82	0.052
511.27	0.047
511.73	0.049
512.19	0.046
512.64	0.050
513.10	0.049
513.55	0.048
514.01	0.049
514.46	0.048
514.92	0.048
515.37	0.050
515.83	0.046
516.28	0.052
516.73	0.048
517.19	0.049
517.64	0.048
518.10	0.049
518.55	0.049
519.01	0.045
519.46	0.049
519.92	0.048
520.37	0.048
520.83	0.050
521.28	0.048
521.74	0.047
522.19	0.048
522.65	0.047
523.10	0.049
523.55	0.047
524.01	0.050
524.46	0.049
524.92	0.050
525.37	0.048
525.83	0.050
526.28	0.046
526.73	0.049
527.19	0.051
527.64	0.052
528.10	0.049
528.55	0.048
529.01	0.050
529.46	0.052
529.91	0.049
530.37	0.048
530.82	0.051
531.28	0.051
531.73	0.049
532.18	0.052
532.64	0.050
533.09	0.051
533.54	0.051
534.00	0.047
534.45	0.051
534.91	0.049
535.36	0.051
535.81	0.048
536.27	0.053
536.72	0.050
537.17	0.052
537.63	0.052
538.08	0.053
538.54	0.052
538.99	0.052
539.44	0.053
539.90	0.051
540.35	0.051
540.80	0.053
541.26	0.051
541.71	0.053
542.16	0.053
542.62	0.053
543.07	0.055
543.52	0.053
543.98	0.055
544.43	0.055
544.88	0.056
545.34	0.056
545.79	0.056
546.24	0.056
546.69	0.056
547.15	0.055
547.60	0.059
548.05	0.056
548.51	0.057
548.96	0.057
549.41	0.058
549.86	0.060
550.32	0.058
550.77	0.060
551.22	0.062
551.68	0.059
552.13	0.058
552.58	0.060
553.03	0.058
553.49	0.060
553.94	0.060
554.39	0.060
554.84	0.063
555.30	0.063
555.75	0.061
556.20	0.064
556.65	0.064
557.11	0.064
557.56	0.067
558.01	0.063
558.46	0.065
558.92	0.067
559.37	0.067
559.82	0.066
560.27	0.069
560.72	0.066
561.18	0.066
561.63	0.071
562.08	0.069
562.53	0.069
562.99	0.068
563.44	0.070
563.89	0.071
564.34	0.071
564.79	0.073
565.25	0.073
565.70	0.072
566.15	0.074
566.60	0.074
567.05	0.076
567.50	0.076
567.96	0.077
568.41	0.080
568.86	0.077
569.31	0.078
569.76	0.080
570.21	0.078
570.67	0.076
571.12	0.079
571.57	0.082
572.02	0.083
572.47	0.081
572.92	0.083
573.37	0.083
573.83	0.084
574.28	0.085
574.73	0.085
575.18	0.086
575.63	0.087
576.08	0.086
576.53	0.088
576.98	0.088
577.44	0.090
577.89	0.090
578.34	0.091
578.79	0.095
579.24	0.093
579.69	0.093
580.14	0.096
580.59	0.095
581.04	0.097
581.49	0.099
581.95	0.100
582.40	0.100
582.85	0.100
583.30	0.102
583.75	0.102
584.20	0.104
584.65	0.104
585.10	0.106
585.55	0.107
586.00	0.110
586.45	0.111
586.90	0.111
587.35	0.111
587.80	0.115
588.25	0.114
588.71	0.114
589.16	0.117
589.61	0.119
590.06	0.121
590.51	0.120
590.96	0.122
591.41	0.123
591.86	0.128
592.31	0.128
592.76	0.129
593.21	0.131
593.66	0.132
594.11	0.132
594.56	0.135
595.01	0.137
595.46	0.137
595.91	0.139
596.36	0.141
596.81	0.143
597.26	0.144
597.71	0.145
598.16	0.148
598.61	0.149
599.06	0.151
599.51	0.149
599.96	0.154
600.41	0.153
600.86	0.156
601.31	0.156
601.76	0.157
602.21	0.159
602.65	0.162
603.10	0.163
603.55	0.163
604.00	0.165
604.45	0.165
604.90	0.169
605.35	0.167
605.80	0.169
606.25	0.168
606.70	0.172
607.15	0.176
607.60	0.174
608.05	0.173
608.50	0.178
608.95	0.179
609.39	0.180
609.84	0.182
610.29	0.180
610.74	0.185
611.19	0.183
611.64	0.183
612.09	0.185
612.54	0.187
612.99	0.187
613.44	0.187
613.88	0.191
614.33	0.189
614.78	0.189
615.23	0.188
615.68	0.189
616.13	0.192
616.58	0.190
617.03	0.190
617.47	0.193
617.92	0.195
618.37	0.196
618.82	0.196
619.27	0.195
619.72	0.197
620.17	0.195
620.61	0.197
621.06	0.200
621.51	0.199
621.96	0.199
622.41	0.202
622.86	0.199
623.30	0.200
623.75	0.200
624.20	0.202
624.65	0.204
625.10	0.203
625.54	0.203
625.99	0.206
626.44	0.205
626.89	0.206
627.34	0.207
627.78	0.207
628.23	0.210
628.68	0.212
629.13	0.212
629.58	0.210
630.02	0.212
630.47	0.214
630.92	0.217
631.37	0.217
631.81	0.221
632.26	0.219
632.71	0.223
633.16	0.223
633.61	0.223
634.05	0.226
634.50	0.230
634.95	0.227
635.40	0.230
635.84	0.233
636.29	0.234
636.74	0.237
637.18	0.238
637.63	0.239
638.08	0.240
638.53	0.244
638.97	0.244
639.42	0.248
639.87	0.250
640.32	0.252
640.76	0.254
641.21	0.254
641.66	0.257
642.10	0.262
642.55	0.263
643.00	0.263
643.44	0.267
643.89	0.270
644.34	0.272
644.79	0.275
645.23	0.276
645.68	0.280
646.13	0.281
646.57	0.283
647.02	0.286
647.47	0.286
647.91	0.288
648.36	0.293
648.81	0.295
649.25	0.299
649.70	0.300
650.15	0.299
650.59	0.301
651.04	0.305
651.48	0.307
651.93	0.310
652.38	0.311
652.82	0.313
653.27	0.315
653.72	0.316
654.16	0.318
654.61	0.321
655.06	0.322
655.50	0.322
655.95	0.322
656.39	0.324
656.84	0.325
657.29	0.329
657.73	0.330
658.18	0.331
658.62	0.332
659.07	0.330
659.52	0.334
659.96	0.338
660.41	0.333
660.85	0.332
661.30	0.335
661.74	0.337
662.19	0.337
662.64	0.334
663.08	0.338
663.53	0.339
663.97	0.338
664.42	0.337
664.86	0.338
665.31	0.336
665.75	0.332
666.20	0.336
666.65	0.332
667.09	0.331
667.54	0.330
667.98	0.328
668.43	0.327
668.87	0.325
669.32	0.322
669.76	0.320
670.21	0.316
670.65	0.315
671.10	0.313
671.54	0.308
671.99	0.306
672.43	0.298
672.88	0.296
673.32	0.292
673.77	0.286
674.21	0.282
674.66	0.277
675.10	0.271
675.55	0.269
675.99	0.262
676.44	0.259
676.88	0.249
677.33	0.245
677.77	0.240
678.22	0.235
678.66	0.228
679.11	0.220
679.55	0.215
679.99	0.208
680.44	0.201
680.88	0.198
681.33	0.192
681.77	0.187
682.22	0.178
682.66	0.173
683.11	0.168
683.55	0.163
683.99	0.158
684.44	0.151
684.88	0.146
685.33	0.142
685.77	0.136
686.21	0.132
686.66	0.128
687.10	0.123
687.55	0.119
687.99	0.116
688.44	0.110
688.88	0.105
689.32	0.101
689.77	0.098
690.21	0.095
690.65	0.092
691.10	0.088
691.54	0.084
691.99	0.082
692.43	0.078
692.87	0.076
693.32	0.074
693.76	0.072
694.20	0.070
694.65	0.067
695.09	0.066
695.53	0.064
695.98	0.062
696.42	0.060
696.86	0.057
697.31	0.055
697.75	0.054
698.19	0.052
698.64	0.051
699.08	0.049
699.52	0.047
699.97	0.048
700.41	0.048
700.85	0.047
701.30	0.044
701.74	0.038
702.18	0.043
702.63	0.040
703.07	0.040
703.51	0.038
703.96	0.040
704.40	0.039
704.84	0.037
705.28	0.039
705.73	0.034
706.17	0.034
706.61	0.033
707.06	0.036
707.50	0.035
707.94	0.034
708.38	0.033
708.83	0.032
709.27	0.030
709.71	0.033
710.15	0.030
710.60	0.032
711.04	0.031
711.48	0.031
711.92	0.030
712.37	0.031
712.81	0.031
713.25	0.028
713.69	0.029
714.13	0.027
714.58	0.029
715.02	0.027
715.46	0.027
715.90	0.028
716.35	0.028
716.79	0.028
717.23	0.027
717.67	0.027
718.11	0.025
718.56	0.026
719.00	0.026
719.44	0.025
719.88	0.029
720.32	0.028
720.76	0.026
721.21	0.028
721.65	0.030
722.09	0.026
722.53	0.030
722.97	0.028
723.41	0.028
723.86	0.026
724.30	0.025
724.74	0.027
725.18	0.029
725.62	0.026
726.06	0.028
726.50	0.025
726.95	0.028
727.39	0.030
727.83	0.028
728.27	0.028
728.71	0.027
729.15	0.029
729.59	0.028
730.03	0.029
730.48	0.030
730.92	0.030
731.36	0.029
731.80	0.029
732.24	0.030
732.68	0.029
733.12	0.027
733.56	0.030
734.00	0.031
734.44	0.031
734.89	0.028
735.33	0.030
735.77	0.029
736.21	0.028
736.65	0.032
737.09	0.030
737.53	0.033
737.97	0.032
738.41	0.033
738.85	0.030
739.29	0.029
739.73	0.032
740.17	0.032
740.61	0.032
741.05	0.033
741.49	0.029
741.93	0.033
742.37	0.030
742.81	0.030
743.26	0.029
743.70	0.031
744.14	0.029
744.58	0.032
745.02	0.031
745.46	0.028
745.90	0.032
746.34	0.032
746.78	0.033
747.22	0.032
747.66	0.032
748.10	0.031
748.54	0.030
748.98	0.030
749.42	0.031
749.86	0.031
750.29	0.035
750.73	0.033
751.17	0.028
751.61	0.032
752.05	0.030
752.49	0.030
752.93	0.030
753.37	0.032
753.81	0.031
754.25	0.031
754.69	0.029
755.13	0.031
755.57	0.029
756.01	0.031
756.45	0.030
756.89	0.030
757.33	0.034
757.77	0.031
758.21	0.031
758.64	0.033
759.08	0.028
759.52	0.031
759.96	0.029
760.40	0.030
760.84	0.029
761.28	0.032
761.72	0.031
762.16	0.031
762.60	0.028
763.03	0.028
763.47	0.026
763.91	0.027
764.35	0.029
764.79	0.032
765.23	0.030
765.67	0.029
766.11	0.032
766.54	0.029
766.98	0.029
767.42	0.029
767.86	0.032
768.30	0.032
768.74	0.032
769.17	0.034
769.61	0.033
770.05	0.031
770.49	0.029
770.93	0.031
771.37	0.029
771.80	0.029
772.24	0.030
772.68	0.028
773.12	0.028
773.56	0.032
774.00	0.031
774.43	0.029
774.87	0.028
775.31	0.031
775.75	0.029
776.19	0.030
776.62	0.033
777.06	0.030
777.50	0.030
777.94	0.032
778.37	0.030
778.81	0.029
779.25	0.032
779.69	0.031
780.13	0.027
780.56	0.030
781.00	0.033
781.44	0.033
781.88	0.030
782.31	0.032
782.75	0.032
783.19	0.032
783.63	0.033
784.06	0.027
784.50	0.031
784.94	0.030
785.37	0.029
785.81	0.031
786.25	0.026
786.69	0.027
787.12	0.032
787.56	0.032
788.00	0.027
788.43	0.026
788.87	0.029
789.31	0.028
789.75	0.030
790.18	0.027
790.62	0.031
791.06	0.032
791.49	0.030
791.93	0.029
792.37	0.025
792.80	0.027
793.24	0.033
793.68	0.026
794.11	0.032
794.55	0.028
794.99	0.032
795.42	0.030
795.86	0.032
796.30	0.030
796.73	0.030
797.17	0.030
797.61	0.026
798.04	0.026
798.48	0.028
798.91	0.028
799.35	0.028
799.79	0.029
800.22	0.031
800.66	0.026
801.10	0.030
801.53	0.025
801.97	0.027
802.40	0.030
802.84	0.030
803.28	0.028
803.71	0.029
804.15	0.028
804.58	0.027
805.02	0.027
805.46	0.027
805.89	0.032
806.33	0.033
806.76	0.030
807.20	0.027
807.63	0.029
808.07	0.035
808.51	0.028
808.94	0.031
809.38	0.032
809.81	0.027
810.25	0.028
810.68	0.030
811.12	0.029
811.55	0.029
811.99	0.032
812.42	0.027
812.86	0.028
813.29	0.027
813.73	0.030
814.17	0.030
814.60	0.030
815.04	0.030
815.47	0.032
815.91	0.031
816.34	0.027
816.78	0.031
817.21	0.026
817.65	0.028
818.08	0.034
818.52	0.025
818.95	0.032
819.39	0.034
819.82	0.031
820.25	0.034
820.69	0.027
821.12	0.026
821.56	0.033
821.99	0.030
822.43	0.030
822.86	0.027
823.30	0.027
823.73	0.024
824.17	0.032
824.60	0.025
825.04	0.032
825.47	0.035
825.90	0.034
826.34	0.030
826.77	0.031
827.21	0.031
827.64	0.025
828.08	0.033
828.51	0.035
828.94	0.029
829.38	0.034
829.81	0.036
830.25	0.032
830.68	0.033
831.11	0.039
831.55	0.037
831.98	0.035
832.42	0.033
832.85	0.035
833.28	0.033
833.72	0.032
834.15	0.042
834.58	0.036
835.02	0.032
835.45	0.034
835.88	0.035
836.32	0.036
836.75	0.035
837.19	0.036
837.62	0.039
838.05	0.041
838.49	0.036
838.92	0.036
839.35	0.041
839.79	0.036
840.22	0.039
840.65	0.036
841.09	0.044
841.52	0.042
841.95	0.039
842.39	0.039
842.82	0.037
843.25	0.037
843.68	0.037
844.12	0.033
844.55	0.040
844.98	0.035
845.42	0.034
845.85	0.041
846.28	0.038
846.71	0.036
847.15	0.042
847.58	0.040
848.01	0.035
848.45	0.043
848.88	0.036
849.31	0.040
849.74	0.034
850.18	0.038
850.61	0.036
851.04	0.038
851.47	0.038
851.91	0.046
852.34	0.041
852.77	0.038
853.20	0.041
853.64	0.038
854.07	0.042
854.50	0.043
854.93	0.044
855.36	0.043
855.80	0.037
856.23	0.040
856.66	0.042
857.09	0.039
857.52	0.041
857.96	0.036
858.39	0.043
858.82	0.038
859.25	0.042
859.68	0.046
860.12	0.040
860.55	0.039
860.98	0.037
861.41	0.041
861.84	0.040
862.27	0.043
862.71	0.041
863.14	0.039
863.57	0.047
864.00	0.041
864.43	0.042
864.86	0.041
865.30	0.041
865.73	0.042
866.16	0.045
866.59	0.042
867.02	0.042
867.45	0.047
867.88	0.042
868.31	0.043
868.75	0.046
869.18	0.044
869.61	0.040
870.04	0.043
870.47	0.045
870.90	0.042
871.33	0.039
871.76	0.046
872.19	0.045
872.62	0.044
873.06	0.046
873.49	0.046
873.92	0.044
874.35	0.043
874.78	0.044
875.21	0.045
875.64	0.048
876.07	0.048
876.50	0.050
876.93	0.047
877.36	0.049
877.79	0.050
878.22	0.040
878.65	0.051
879.08	0.053
879.51	0.047
879.94	0.046
880.37	0.050
880.80	0.046
881.23	0.045
881.67	0.047
882.10	0.043
882.53	0.045
882.96	0.045
883.39	0.051
883.82	0.053
884.25	0.054
884.68	0.052
885.11	0.051
885.54	0.051
885.97	0.046
886.39	0.054
886.82	0.051
887.25	0.047
887.68	0.049
888.11	0.051
888.54	0.050
888.97	0.049
889.40	0.053
889.83	0.056
890.26	0.053
890.69	0.054
891.12	0.055
891.55	0.053
891.98	0.051
892.41	0.054
892.84	0.055
893.27	0.050
893.70	0.049
894.13	0.054
894.56	0.054
894.98	0.053
895.41	0.051
895.84	0.051
896.27	0.053
896.70	0.052
897.13	0.059
897.56	0.060
897.99	0.056
898.42	0.058
898.85	0.064
899.27	0.057
899.70	0.055
900.13	0.058
900.56	0.061
900.99	0.057
901.42	0.052
901.85	0.059
902.28	0.057
902.70	0.060
903.13	0.055
903.56	0.055
903.99	0.057
904.42	0.058
904.85	0.054
905.27	0.058
905.70	0.058
906.13	0.062
906.56	0.065
906.99	0.061
907.42	0.058
907.84	0.057
908.27	0.059
908.70	0.057
909.13	0.060
909.56	0.058
909.98	0.059
910.41	0.057
910.84	0.055
911.27	0.058
911.70	0.055
912.12	0.061
912.55	0.059
912.98	0.058
913.41	0.058
913.84	0.057
914.26	0.058
914.69	0.064
915.12	0.058
915.55	0.060
915.97	0.063
916.40	0.059
916.83	0.060
917.26	0.057
917.68	0.059
918.11	0.054
918.54	0.058
918.97	0.057
919.39	0.061
919.82	0.061
920.25	0.060
920.67	0.061
921.10	0.060
921.53	0.061
921.96	0.063
922.38	0.059
922.81	0.065
923.24	0.065
923.66	0.064
924.09	0.065
924.52	0.066
924.94	0.069
925.37	0.068
925.80	0.068
926.22	0.068
926.65	0.072
927.08	0.070
927.50	0.070
927.93	0.073
928.36	0.074
928.78	0.074
929.21	0.076
929.64	0.080
930.06	0.078
930.49	0.075
930.92	0.075
931.34	0.077
931.77	0.079
932.20	0.077
932.62	0.084
933.05	0.081
933.47	0.083
933.90	0.081
934.33	0.081
934.75	0.078
935.18	0.086
935.61	0.088
936.03	0.091
936.46	0.086
936.88	0.089
937.31	0.099
937.73	0.099
938.16	0.092
938.59	0.097
939.01	0.104
939.44	0.100
939.86	0.099
940.29	0.112
940.71	0.105
941.14	0.107
941.57	0.104
941.99	0.115
942.42	0.116
942.84	0.121
943.27	0.107
943.69	0.126
944.12	0.133
944.54	0.125
944.97	0.124
945.39	0.127
945.82	0.125
946.24	0.129
946.67	0.133
947.09	0.143
947.52	0.137
947.94	0.145
948.37	0.141
948.79	0.142
949.22	0.150
949.64	0.145
950.07	0.157
950.49	0.150
950.92	0.157
951.34	0.164
951.77	0.160
952.19	0.171
952.62	0.171
953.04	0.174
953.47	0.173
953.89	0.176
954.32	0.180
954.74	0.186
955.17	0.190
955.59	0.186
956.01	0.189
956.44	0.194
956.86	0.191
957.29	0.199
957.71	0.205
958.14	0.200
958.56	0.210
958.98	0.212
959.41	0.215
959.83	0.209
960.26	0.212
960.68	0.211
961.10	0.218
961.53	0.221
961.95	0.216
962.38	0.218
962.80	0.223
963.22	0.217
963.65	0.219
964.07	0.219
964.50	0.224
964.92	0.222
965.34	0.218
965.77	0.231
966.19	0.224
966.61	0.222
967.04	0.222
967.46	0.230
967.88	0.220
968.31	0.231
968.73	0.227
969.15	0.234
969.58	0.225
970.00	0.227
970.42	0.228
970.85	0.233
971.27	0.225
971.69	0.232
972.12	0.237
972.54	0.236
972.96	0.233
973.39	0.225
973.81	0.236
974.23	0.230
974.65	0.234
975.08	0.233
975.50	0.231
975.92	0.235
976.35	0.229
976.77	0.237
977.19	0.230
977.61	0.238
978.04	0.239
978.46	0.236
978.88	0.233
979.30	0.234
979.73	0.231
980.15	0.231
980.57	0.238
980.99	0.229
981.42	0.231
981.84	0.234
982.26	0.236
982.68	0.241
983.11	0.232
983.53	0.233
983.95	0.238
984.37	0.233
984.79	0.233
985.22	0.230
985.64	0.229
986.06	0.227
986.48	0.232
986.90	0.218
987.33	0.228
987.75	0.230
988.17	0.230
988.59	0.231
989.01	0.226
989.43	0.221
989.86	0.228
990.28	0.227
990.70	0.223
991.12	0.226
991.54	0.224
991.96	0.226
992.39	0.215
992.81	0.221
993.23	0.212
993.65	0.217
994.07	0.220
994.49	0.217
994.91	0.218
995.34	0.214
995.76	0.214
996.18	0.210
996.60	0.220
997.02	0.211
997.44	0.212
997.86	0.208
998.28	0.205
998.70	0.214
999.12	0.218
999.55	0.213
999.97	0.202
1000.39	0.206
1000.81	0.207
1001.23	0.200
1001.65	0.207
1002.07	0.204
1002.49	0.196
1002.91	0.211
1003.33	0.208
1003.75	0.204
1004.17	0.196
1004.59	0.200
1005.01	0.200
1005.43	0.191
1005.85	0.192
1006.28	0.205
1006.70	0.195
1007.12	0.191
1007.54	0.187
1007.96	0.183
1008.38	0.194
1008.80	0.202
1009.22	0.185
1009.64	0.182
1010.06	0.193
1010.48	0.187
1010.90	0.177
1011.32	0.174
1011.74	0.175
1012.16	0.179
1012.58	0.180
1013.00	0.176
1013.42	0.183
1013.84	0.169
1014.26	0.173
1014.67	0.188
1015.09	0.178
1015.51	0.168
1015.93	0.184
1016.35	0.176
1016.77	0.182
1017.19	0.174
1017.61	0.171
1018.03	0.173
1018.45	0.166
1018.87	0.179
1019.29	0.164
1019.71	0.155
1020.13	0.158
1020.55	0.162
1020.97	0.155
1021.38	0.145
1021.80	0.166
1022.22	0.158
1022.64	0.146
1023.06	0.148
1023.48	0.155
1023.90	0.148
1024.32	0.149
1024.74	0.148
1025.15	0.161
1025.57	0.153
1025.99	0.153
1026.41	0.159
1026.83	0.144
1027.25	0.145
1027.67	0.134
1028.08	0.152
1028.50	0.146
1028.92	0.142
1029.34	0.142
1029.76	0.136
1030.18	0.133
1030.60	0.129
1031.01	0.149
1031.43	0.128
1031.85	0.128
1032.27	0.124
1032.69	0.120
1033.10	0.122
1033.52	0.120
1033.94	0.126
1034.36	0.149
1034.78	0.129
1035.19	0.120
1035.61	0.128
1036.03	0.121
1036.45	0.130
1036.87	0.130
1037.28	0.129
1037.70	0.128
1038.12	0.124
1038.54	0.124
1038.95	0.122
1039.37	0.132
1039.79	0.101
1040.21	0.110
1040.62	0.118
1041.04	0.123
1041.46	0.108
1041.88	0.118
1042.29	0.097
1042.71	0.110
1043.13	0.095
1043.55	0.105
1043.96	0.114
1044.38	0.114
1044.80	0.094
1045.21	0.090
1045.63	0.123
1046.05	0.097
1046.47	0.097
1046.88	0.104
1047.30	0.109
1047.72	0.119
1048.13	0.098
1048.55	0.099
1048.97	0.121
1049.38	0.107
1049.80	0.096
1050.22	0.083
1050.63	0.107
1051.05	0.099
1051.47	0.075
1051.88	0.117
1052.30	0.083
1052.72	0.103
1053.13	0.095
1053.55	0.102
1053.97	0.125
1054.38	0.094
1054.80	0.089
1055.21	0.085
1055.63	0.066
1056.05	0.089
1056.46	0.123
1056.88	0.108
1057.29	0.096
1057.71	0.077
1058.13	0.108
1058.54	0.106
1058.96	0.075
1059.37	0.112
1059.79	0.074
1060.21	0.061
1060.62	0.103
1061.04	0.117
1061.45	0.099
1061.87	0.089
1062.28	0.104
1062.70	0.143
1063.12	0.062
1063.53	0.099
1063.95	0.119
1064.36	0.120
1064.78	0.038
1065.19	0.080
1065.61	0.160
1066.02	0.088
1066.44	0.057
1066.85	0.115
1067.27	0.145
1067.68	0.142
1068.10	0.116
1068.51	0.124
1068.93	0.156
1069.35	0.088
1069.76	0.133
1070.17	0.083
1070.59	0.057
1071.00	0.025
1071.42	0.117
1071.83	0.192
1072.25	0.124
1072.66	0.162
1073.08	0.117
1073.49	0.110
1073.91	0.168
1074.32	0.132
1074.74	0.216
1075.15	0.184
1075.57	0.242
1075.98	0.128
1076.40	0.124
1076.81	0.006
1077.22	0.245
1077.64	0.184
1078.05	0.096
1078.47	-0.083
1078.88	0.181
1079.30	0.100
1079.71	0.038
1080.12	0.290
1080.54	-0.052
1080.95	0.128
1081.37	-0.060
1081.78	0.201
1082.19	0.074
1082.61	0.053
1083.02	0.153
1083.44	0.160
1083.85	0.153
1084.26	0.274
1084.68	0.257
1085.09	0.134
1085.50	0.260
1085.92	0.377
1086.33	0.343
1086.74	0.325
1087.16	0.129
1087.57	0.095
1087.98	0.048
1088.40	0.161
1088.81	0.039
1089.22	0.013
1089.64	-0.000
1090.05	-0.011
1090.46	-0.129
1090.88	0.258
1091.29	0.202
1091.70	0.740
1092.12	0.511
1092.53	0.223
1092.94	0.686
1093.36	-0.076
1093.77	0.594
1094.18	0.299
1094.59	-0.006
1095.01	0.078
1095.42	0.984
1095.83	0.726
1096.25	0.299
1096.66	0.311
1097.07	0.146
1097.48	0.188
1097.90	-0.181
1098.31	0.422
1098.72	0.222
1099.13	0.178
>>>>>End Processed Spectral Data<<<<<
