SpectraSuite Data File
++++++++++++++++++++++++++++++++++++
Date: Tue Jul 11 15:33:32 CEST 2017
User: IPCE
Dark Spectrum Present: Yes
Reference Spectrum Present: Yes
Number of Sampled Component Spectra: 1
Spectrometers: HR+C0708
Integration Time (usec): 1000 (HR+C0708)
Spectra Averaged: 10 (HR+C0708)
Boxcar Smoothing: 0 (HR+C0708)
Correct for Electrical Dark: No (HR+C0708)
Strobe/Lamp Enabled: No (HR+C0708)
Correct for Detector Non-linearity: No (HR+C0708)
Correct for Stray Light: No (HR+C0708)
Number of Pixels in Processed Spectrum: 2048
>>>>>Begin Processed Spectral Data<<<<<
188.76	0.091
189.23	-0.121
189.70	-0.524
190.17	0.738
190.64	-0.000
191.12	0.334
191.59	0.198
192.06	-0.000
192.53	0.365
193.01	0.940
193.48	-0.436
193.95	0.644
194.42	0.168
194.90	0.304
195.37	0.249
195.84	0.370
196.31	0.781
196.78	0.167
197.26	0.180
197.73	0.412
198.20	0.198
198.67	0.168
199.14	0.238
199.62	0.398
200.09	0.962
200.56	0.386
201.03	0.341
201.50	0.468
201.97	0.414
202.45	0.795
202.92	0.514
203.39	0.542
203.86	0.475
204.33	0.655
204.80	0.707
205.28	0.497
205.75	0.391
206.22	0.468
206.69	0.726
207.16	0.380
207.63	0.390
208.11	0.490
208.58	0.441
209.05	0.446
209.52	0.701
209.99	0.669
210.46	0.559
210.93	0.584
211.41	0.409
211.88	0.375
212.35	0.508
212.82	0.336
213.29	0.481
213.76	0.461
214.23	0.363
214.70	0.516
215.18	0.513
215.65	0.363
216.12	0.360
216.59	0.377
217.06	0.894
217.53	0.437
218.00	0.550
218.47	0.575
218.94	0.367
219.41	0.624
219.89	0.576
220.36	0.665
220.83	0.503
221.30	0.519
221.77	0.555
222.24	0.470
222.71	0.857
223.18	0.511
223.65	0.693
224.12	0.674
224.59	0.705
225.06	0.807
225.54	0.750
226.01	0.767
226.48	0.950
226.95	0.825
227.42	0.905
227.89	1.007
228.36	0.910
228.83	1.153
229.30	1.096
229.77	1.173
230.24	1.263
230.71	1.268
231.18	1.139
231.65	1.590
232.12	1.402
232.59	1.469
233.06	1.713
233.53	1.579
234.00	1.604
234.47	1.803
234.94	1.973
235.41	1.852
235.88	1.917
236.35	1.673
236.82	2.044
237.29	1.930
237.76	2.026
238.23	2.009
238.70	2.186
239.17	1.983
239.64	2.118
240.11	2.179
240.58	2.374
241.05	2.561
241.52	2.117
241.99	2.377
242.46	2.176
242.93	2.265
243.40	2.366
243.87	2.336
244.34	2.365
244.81	2.258
245.28	2.217
245.75	2.342
246.22	2.464
246.69	2.385
247.16	2.494
247.63	2.329
248.10	2.416
248.57	2.435
249.04	2.306
249.51	2.325
249.98	2.305
250.45	2.642
250.92	2.377
251.39	2.556
251.85	2.629
252.32	2.726
252.79	2.395
253.26	2.481
253.73	2.787
254.20	2.389
254.67	2.503
255.14	2.446
255.61	2.475
256.08	2.646
256.55	2.540
257.02	2.464
257.49	2.890
257.95	2.667
258.42	2.558
258.89	2.521
259.36	2.670
259.83	2.596
260.30	2.574
260.77	2.689
261.24	2.624
261.71	2.670
262.17	2.873
262.64	2.878
263.11	2.557
263.58	3.017
264.05	3.012
264.52	2.810
264.99	2.675
265.46	2.675
265.92	2.648
266.39	2.818
266.86	2.750
267.33	2.744
267.80	2.711
268.27	2.579
268.74	2.612
269.20	2.650
269.67	2.522
270.14	2.772
270.61	2.704
271.08	2.540
271.55	2.537
272.01	2.427
272.48	2.602
272.95	2.865
273.42	2.565
273.89	2.617
274.36	2.650
274.82	2.507
275.29	2.507
275.76	2.622
276.23	2.492
276.70	2.496
277.16	2.492
277.63	2.668
278.10	2.618
278.57	2.408
279.04	2.495
279.50	2.615
279.97	2.635
280.44	2.413
280.91	2.583
281.38	2.531
281.84	2.469
282.31	2.670
282.78	2.685
283.25	2.494
283.72	2.551
284.18	2.507
284.65	2.555
285.12	2.635
285.59	2.432
286.05	2.449
286.52	2.529
286.99	2.511
287.46	2.538
287.92	2.438
288.39	2.609
288.86	2.547
289.33	2.540
289.79	2.643
290.26	2.542
290.73	2.438
291.20	2.565
291.66	2.541
292.13	2.536
292.60	2.536
293.07	2.512
293.53	2.545
294.00	2.398
294.47	2.577
294.93	2.678
295.40	2.443
295.87	2.387
296.34	2.474
296.80	2.417
297.27	2.384
297.74	2.476
298.20	2.705
298.67	2.382
299.14	2.507
299.60	2.612
300.07	2.477
300.54	2.310
301.01	2.376
301.47	2.475
301.94	2.505
302.41	2.336
302.87	2.343
303.34	2.367
303.81	2.314
304.27	2.382
304.74	2.370
305.21	2.403
305.67	2.310
306.14	2.295
306.61	2.378
307.07	2.348
307.54	2.251
308.01	2.290
308.47	2.274
308.94	2.257
309.40	2.287
309.87	2.309
310.34	2.389
310.80	2.272
311.27	2.266
311.74	2.282
312.20	2.273
312.67	2.275
313.13	2.351
313.60	2.333
314.07	2.248
314.53	2.295
315.00	2.299
315.47	2.254
315.93	2.273
316.40	2.285
316.86	2.284
317.33	2.277
317.80	2.320
318.26	2.299
318.73	2.265
319.19	2.270
319.66	2.203
320.13	2.199
320.59	2.249
321.06	2.163
321.52	2.171
321.99	2.324
322.45	2.276
322.92	2.201
323.39	2.342
323.85	2.146
324.32	2.194
324.78	2.163
325.25	2.143
325.71	2.174
326.18	2.178
326.64	2.185
327.11	2.107
327.58	2.157
328.04	2.157
328.51	2.273
328.97	2.091
329.44	2.147
329.90	2.135
330.37	2.071
330.83	2.132
331.30	2.133
331.76	2.117
332.23	2.139
332.69	2.103
333.16	2.133
333.62	2.157
334.09	2.095
334.56	2.105
335.02	2.095
335.49	2.048
335.95	2.080
336.42	2.100
336.88	2.049
337.35	2.008
337.81	1.985
338.28	1.983
338.74	2.084
339.20	2.087
339.67	2.068
340.13	2.059
340.60	2.083
341.06	1.982
341.53	2.020
341.99	2.057
342.46	2.032
342.92	2.032
343.39	1.991
343.85	1.968
344.32	1.951
344.78	1.954
345.25	2.044
345.71	1.994
346.17	1.938
346.64	1.940
347.10	1.904
347.57	1.937
348.03	1.919
348.50	1.862
348.96	1.792
349.43	1.796
349.89	1.742
350.35	1.749
350.82	1.691
351.28	1.675
351.75	1.679
352.21	1.650
352.67	1.634
353.14	1.592
353.60	1.577
354.07	1.553
354.53	1.500
355.00	1.513
355.46	1.469
355.92	1.417
356.39	1.411
356.85	1.397
357.31	1.366
357.78	1.348
358.24	1.282
358.71	1.250
359.17	1.187
359.63	1.146
360.10	1.099
360.56	1.057
361.03	0.997
361.49	0.950
361.95	0.905
362.42	0.846
362.88	0.792
363.34	0.743
363.81	0.694
364.27	0.651
364.73	0.611
365.20	0.569
365.66	0.542
366.12	0.497
366.59	0.473
367.05	0.446
367.51	0.418
367.98	0.391
368.44	0.373
368.90	0.354
369.37	0.337
369.83	0.319
370.29	0.307
370.76	0.294
371.22	0.280
371.68	0.272
372.15	0.263
372.61	0.258
373.07	0.250
373.54	0.248
374.00	0.244
374.46	0.237
374.92	0.232
375.39	0.230
375.85	0.230
376.31	0.225
376.78	0.223
377.24	0.220
377.70	0.219
378.16	0.217
378.63	0.215
379.09	0.213
379.55	0.210
380.01	0.208
380.48	0.207
380.94	0.205
381.40	0.206
381.87	0.202
382.33	0.202
382.79	0.202
383.25	0.200
383.72	0.199
384.18	0.195
384.64	0.196
385.10	0.194
385.56	0.193
386.03	0.190
386.49	0.189
386.95	0.189
387.41	0.188
387.88	0.187
388.34	0.185
388.80	0.186
389.26	0.182
389.72	0.183
390.19	0.183
390.65	0.177
391.11	0.180
391.57	0.180
392.04	0.179
392.50	0.178
392.96	0.178
393.42	0.175
393.88	0.178
394.34	0.175
394.81	0.172
395.27	0.170
395.73	0.169
396.19	0.172
396.65	0.172
397.12	0.168
397.58	0.167
398.04	0.169
398.50	0.167
398.96	0.167
399.42	0.165
399.89	0.164
400.35	0.163
400.81	0.163
401.27	0.165
401.73	0.159
402.19	0.160
402.65	0.161
403.12	0.156
403.58	0.158
404.04	0.158
404.50	0.157
404.96	0.157
405.42	0.156
405.88	0.153
406.34	0.153
406.81	0.152
407.27	0.152
407.73	0.151
408.19	0.151
408.65	0.152
409.11	0.151
409.57	0.149
410.03	0.151
410.49	0.149
410.96	0.145
411.42	0.145
411.88	0.146
412.34	0.143
412.80	0.145
413.26	0.145
413.72	0.143
414.18	0.145
414.64	0.140
415.10	0.145
415.56	0.142
416.02	0.138
416.48	0.139
416.95	0.140
417.41	0.140
417.87	0.139
418.33	0.138
418.79	0.137
419.25	0.138
419.71	0.135
420.17	0.137
420.63	0.138
421.09	0.137
421.55	0.136
422.01	0.131
422.47	0.134
422.93	0.133
423.39	0.134
423.85	0.133
424.31	0.131
424.77	0.131
425.23	0.129
425.69	0.132
426.15	0.133
426.61	0.132
427.07	0.130
427.53	0.130
427.99	0.132
428.45	0.133
428.91	0.127
429.37	0.130
429.83	0.130
430.29	0.128
430.75	0.128
431.21	0.125
431.67	0.127
432.13	0.123
432.59	0.123
433.05	0.120
433.51	0.125
433.97	0.125
434.43	0.123
434.89	0.120
435.35	0.122
435.81	0.119
436.27	0.120
436.73	0.121
437.19	0.121
437.65	0.119
438.11	0.121
438.57	0.121
439.03	0.115
439.48	0.119
439.94	0.116
440.40	0.120
440.86	0.118
441.32	0.113
441.78	0.116
442.24	0.115
442.70	0.114
443.16	0.116
443.62	0.116
444.08	0.117
444.54	0.116
444.99	0.115
445.45	0.117
445.91	0.116
446.37	0.114
446.83	0.113
447.29	0.113
447.75	0.114
448.21	0.114
448.67	0.115
449.12	0.110
449.58	0.107
450.04	0.111
450.50	0.108
450.96	0.110
451.42	0.110
451.88	0.111
452.34	0.112
452.79	0.109
453.25	0.108
453.71	0.107
454.17	0.108
454.63	0.108
455.09	0.106
455.55	0.106
456.00	0.104
456.46	0.107
456.92	0.106
457.38	0.110
457.84	0.103
458.30	0.103
458.75	0.104
459.21	0.103
459.67	0.104
460.13	0.108
460.59	0.107
461.04	0.101
461.50	0.103
461.96	0.103
462.42	0.106
462.88	0.101
463.33	0.103
463.79	0.103
464.25	0.102
464.71	0.103
465.17	0.102
465.62	0.104
466.08	0.103
466.54	0.102
467.00	0.102
467.46	0.102
467.91	0.101
468.37	0.101
468.83	0.103
469.29	0.100
469.74	0.100
470.20	0.101
470.66	0.100
471.12	0.099
471.57	0.101
472.03	0.099
472.49	0.099
472.95	0.100
473.40	0.099
473.86	0.098
474.32	0.096
474.78	0.099
475.23	0.098
475.69	0.097
476.15	0.097
476.60	0.096
477.06	0.094
477.52	0.097
477.98	0.098
478.43	0.097
478.89	0.100
479.35	0.094
479.80	0.096
480.26	0.096
480.72	0.095
481.18	0.094
481.63	0.093
482.09	0.094
482.55	0.093
483.00	0.093
483.46	0.094
483.92	0.093
484.37	0.094
484.83	0.092
485.29	0.094
485.74	0.092
486.20	0.092
486.66	0.093
487.11	0.093
487.57	0.094
488.03	0.094
488.48	0.091
488.94	0.092
489.40	0.091
489.85	0.092
490.31	0.089
490.77	0.091
491.22	0.089
491.68	0.092
492.13	0.090
492.59	0.089
493.05	0.089
493.50	0.089
493.96	0.089
494.42	0.090
494.87	0.090
495.33	0.089
495.78	0.088
496.24	0.088
496.70	0.089
497.15	0.089
497.61	0.088
498.06	0.090
498.52	0.087
498.98	0.089
499.43	0.086
499.89	0.089
500.34	0.089
500.80	0.087
501.25	0.087
501.71	0.085
502.17	0.084
502.62	0.086
503.08	0.086
503.53	0.086
503.99	0.087
504.44	0.084
504.90	0.084
505.36	0.083
505.81	0.083
506.27	0.085
506.72	0.085
507.18	0.084
507.63	0.083
508.09	0.083
508.54	0.083
509.00	0.084
509.45	0.084
509.91	0.085
510.36	0.084
510.82	0.086
511.27	0.083
511.73	0.083
512.19	0.082
512.64	0.083
513.10	0.085
513.55	0.083
514.01	0.081
514.46	0.083
514.92	0.080
515.37	0.080
515.83	0.082
516.28	0.083
516.73	0.081
517.19	0.081
517.64	0.079
518.10	0.081
518.55	0.081
519.01	0.078
519.46	0.081
519.92	0.080
520.37	0.080
520.83	0.082
521.28	0.079
521.74	0.078
522.19	0.081
522.65	0.078
523.10	0.080
523.55	0.079
524.01	0.081
524.46	0.080
524.92	0.079
525.37	0.078
525.83	0.079
526.28	0.077
526.73	0.079
527.19	0.080
527.64	0.081
528.10	0.078
528.55	0.078
529.01	0.078
529.46	0.079
529.91	0.077
530.37	0.079
530.82	0.077
531.28	0.077
531.73	0.077
532.18	0.079
532.64	0.076
533.09	0.079
533.54	0.077
534.00	0.076
534.45	0.077
534.91	0.076
535.36	0.076
535.81	0.077
536.27	0.078
536.72	0.076
537.17	0.077
537.63	0.078
538.08	0.075
538.54	0.076
538.99	0.075
539.44	0.079
539.90	0.077
540.35	0.076
540.80	0.076
541.26	0.075
541.71	0.075
542.16	0.078
542.62	0.077
543.07	0.078
543.52	0.074
543.98	0.077
544.43	0.077
544.88	0.078
545.34	0.077
545.79	0.078
546.24	0.077
546.69	0.075
547.15	0.075
547.60	0.079
548.05	0.076
548.51	0.076
548.96	0.076
549.41	0.076
549.86	0.078
550.32	0.078
550.77	0.077
551.22	0.079
551.68	0.076
552.13	0.076
552.58	0.077
553.03	0.077
553.49	0.076
553.94	0.075
554.39	0.078
554.84	0.080
555.30	0.076
555.75	0.079
556.20	0.079
556.65	0.077
557.11	0.077
557.56	0.080
558.01	0.078
558.46	0.081
558.92	0.078
559.37	0.080
559.82	0.077
560.27	0.079
560.72	0.078
561.18	0.077
561.63	0.079
562.08	0.079
562.53	0.078
562.99	0.078
563.44	0.077
563.89	0.079
564.34	0.080
564.79	0.080
565.25	0.080
565.70	0.080
566.15	0.079
566.60	0.079
567.05	0.082
567.50	0.082
567.96	0.083
568.41	0.082
568.86	0.080
569.31	0.081
569.76	0.082
570.21	0.080
570.67	0.079
571.12	0.081
571.57	0.081
572.02	0.082
572.47	0.083
572.92	0.083
573.37	0.082
573.83	0.083
574.28	0.083
574.73	0.082
575.18	0.083
575.63	0.084
576.08	0.083
576.53	0.082
576.98	0.085
577.44	0.085
577.89	0.084
578.34	0.085
578.79	0.087
579.24	0.086
579.69	0.086
580.14	0.087
580.59	0.086
581.04	0.085
581.49	0.089
581.95	0.088
582.40	0.088
582.85	0.087
583.30	0.088
583.75	0.089
584.20	0.090
584.65	0.086
585.10	0.088
585.55	0.089
586.00	0.091
586.45	0.091
586.90	0.091
587.35	0.092
587.80	0.093
588.25	0.091
588.71	0.090
589.16	0.093
589.61	0.096
590.06	0.095
590.51	0.096
590.96	0.095
591.41	0.097
591.86	0.098
592.31	0.098
592.76	0.098
593.21	0.098
593.66	0.098
594.11	0.100
594.56	0.100
595.01	0.100
595.46	0.104
595.91	0.102
596.36	0.103
596.81	0.105
597.26	0.104
597.71	0.105
598.16	0.105
598.61	0.107
599.06	0.107
599.51	0.104
599.96	0.108
600.41	0.108
600.86	0.109
601.31	0.108
601.76	0.111
602.21	0.109
602.65	0.112
603.10	0.111
603.55	0.111
604.00	0.113
604.45	0.112
604.90	0.114
605.35	0.116
605.80	0.112
606.25	0.115
606.70	0.116
607.15	0.116
607.60	0.115
608.05	0.116
608.50	0.117
608.95	0.118
609.39	0.119
609.84	0.120
610.29	0.118
610.74	0.119
611.19	0.119
611.64	0.122
612.09	0.120
612.54	0.120
612.99	0.123
613.44	0.118
613.88	0.122
614.33	0.118
614.78	0.121
615.23	0.122
615.68	0.123
616.13	0.123
616.58	0.122
617.03	0.120
617.47	0.122
617.92	0.124
618.37	0.124
618.82	0.124
619.27	0.122
619.72	0.121
620.17	0.124
620.61	0.122
621.06	0.124
621.51	0.123
621.96	0.123
622.41	0.125
622.86	0.123
623.30	0.125
623.75	0.123
624.20	0.126
624.65	0.127
625.10	0.124
625.54	0.126
625.99	0.126
626.44	0.126
626.89	0.126
627.34	0.127
627.78	0.127
628.23	0.128
628.68	0.127
629.13	0.128
629.58	0.126
630.02	0.129
630.47	0.128
630.92	0.129
631.37	0.130
631.81	0.130
632.26	0.131
632.71	0.133
633.16	0.132
633.61	0.132
634.05	0.133
634.50	0.135
634.95	0.135
635.40	0.134
635.84	0.136
636.29	0.137
636.74	0.137
637.18	0.138
637.63	0.139
638.08	0.140
638.53	0.140
638.97	0.141
639.42	0.143
639.87	0.144
640.32	0.143
640.76	0.147
641.21	0.145
641.66	0.146
642.10	0.147
642.55	0.148
643.00	0.150
643.44	0.149
643.89	0.151
644.34	0.153
644.79	0.155
645.23	0.155
645.68	0.156
646.13	0.158
646.57	0.159
647.02	0.159
647.47	0.157
647.91	0.160
648.36	0.163
648.81	0.163
649.25	0.165
649.70	0.164
650.15	0.167
650.59	0.166
651.04	0.169
651.48	0.168
651.93	0.169
652.38	0.172
652.82	0.172
653.27	0.174
653.72	0.175
654.16	0.175
654.61	0.175
655.06	0.178
655.50	0.177
655.95	0.176
656.39	0.178
656.84	0.177
657.29	0.180
657.73	0.181
658.18	0.181
658.62	0.181
659.07	0.184
659.52	0.186
659.96	0.186
660.41	0.186
660.85	0.184
661.30	0.186
661.74	0.189
662.19	0.188
662.64	0.187
663.08	0.189
663.53	0.191
663.97	0.188
664.42	0.188
664.86	0.188
665.31	0.188
665.75	0.189
666.20	0.186
666.65	0.186
667.09	0.186
667.54	0.185
667.98	0.185
668.43	0.188
668.87	0.185
669.32	0.185
669.76	0.183
670.21	0.183
670.65	0.180
671.10	0.179
671.54	0.176
671.99	0.176
672.43	0.174
672.88	0.171
673.32	0.170
673.77	0.166
674.21	0.167
674.66	0.162
675.10	0.161
675.55	0.159
675.99	0.159
676.44	0.157
676.88	0.150
677.33	0.148
677.77	0.145
678.22	0.144
678.66	0.139
679.11	0.137
679.55	0.135
679.99	0.132
680.44	0.128
680.88	0.126
681.33	0.124
681.77	0.123
682.22	0.119
682.66	0.114
683.11	0.112
683.55	0.109
683.99	0.109
684.44	0.105
684.88	0.103
685.33	0.098
685.77	0.097
686.21	0.097
686.66	0.092
687.10	0.089
687.55	0.089
687.99	0.089
688.44	0.086
688.88	0.084
689.32	0.081
689.77	0.079
690.21	0.075
690.65	0.077
691.10	0.073
691.54	0.074
691.99	0.071
692.43	0.070
692.87	0.069
693.32	0.068
693.76	0.066
694.20	0.067
694.65	0.065
695.09	0.064
695.53	0.063
695.98	0.064
696.42	0.060
696.86	0.059
697.31	0.060
697.75	0.059
698.19	0.056
698.64	0.056
699.08	0.058
699.52	0.055
699.97	0.055
700.41	0.057
700.85	0.055
701.30	0.055
701.74	0.051
702.18	0.052
702.63	0.051
703.07	0.054
703.51	0.053
703.96	0.050
704.40	0.051
704.84	0.052
705.28	0.051
705.73	0.050
706.17	0.049
706.61	0.050
707.06	0.049
707.50	0.049
707.94	0.049
708.38	0.048
708.83	0.049
709.27	0.049
709.71	0.050
710.15	0.048
710.60	0.049
711.04	0.048
711.48	0.048
711.92	0.049
712.37	0.048
712.81	0.049
713.25	0.046
713.69	0.047
714.13	0.046
714.58	0.046
715.02	0.046
715.46	0.046
715.90	0.045
716.35	0.046
716.79	0.048
717.23	0.047
717.67	0.048
718.11	0.045
718.56	0.047
719.00	0.046
719.44	0.048
719.88	0.048
720.32	0.048
720.76	0.042
721.21	0.047
721.65	0.049
722.09	0.044
722.53	0.050
722.97	0.047
723.41	0.048
723.86	0.048
724.30	0.047
724.74	0.047
725.18	0.048
725.62	0.046
726.06	0.048
726.50	0.047
726.95	0.048
727.39	0.050
727.83	0.048
728.27	0.046
728.71	0.045
729.15	0.048
729.59	0.050
730.03	0.049
730.48	0.048
730.92	0.049
731.36	0.047
731.80	0.048
732.24	0.050
732.68	0.051
733.12	0.050
733.56	0.051
734.00	0.051
734.44	0.053
734.89	0.050
735.33	0.050
735.77	0.049
736.21	0.051
736.65	0.053
737.09	0.050
737.53	0.049
737.97	0.052
738.41	0.052
738.85	0.051
739.29	0.048
739.73	0.049
740.17	0.049
740.61	0.052
741.05	0.052
741.49	0.049
741.93	0.052
742.37	0.053
742.81	0.052
743.26	0.052
743.70	0.052
744.14	0.051
744.58	0.050
745.02	0.050
745.46	0.048
745.90	0.051
746.34	0.050
746.78	0.050
747.22	0.050
747.66	0.049
748.10	0.050
748.54	0.050
748.98	0.050
749.42	0.052
749.86	0.051
750.29	0.053
750.73	0.050
751.17	0.049
751.61	0.051
752.05	0.050
752.49	0.049
752.93	0.049
753.37	0.051
753.81	0.051
754.25	0.048
754.69	0.053
755.13	0.051
755.57	0.050
756.01	0.048
756.45	0.049
756.89	0.049
757.33	0.052
757.77	0.049
758.21	0.051
758.64	0.052
759.08	0.046
759.52	0.049
759.96	0.050
760.40	0.047
760.84	0.046
761.28	0.051
761.72	0.048
762.16	0.048
762.60	0.047
763.03	0.048
763.47	0.048
763.91	0.045
764.35	0.046
764.79	0.052
765.23	0.050
765.67	0.048
766.11	0.052
766.54	0.049
766.98	0.048
767.42	0.048
767.86	0.050
768.30	0.049
768.74	0.050
769.17	0.049
769.61	0.051
770.05	0.047
770.49	0.048
770.93	0.051
771.37	0.047
771.80	0.050
772.24	0.047
772.68	0.047
773.12	0.049
773.56	0.049
774.00	0.049
774.43	0.045
774.87	0.046
775.31	0.049
775.75	0.048
776.19	0.052
776.62	0.049
777.06	0.047
777.50	0.048
777.94	0.049
778.37	0.049
778.81	0.050
779.25	0.050
779.69	0.047
780.13	0.047
780.56	0.047
781.00	0.049
781.44	0.049
781.88	0.049
782.31	0.051
782.75	0.050
783.19	0.049
783.63	0.051
784.06	0.048
784.50	0.048
784.94	0.051
785.37	0.047
785.81	0.046
786.25	0.046
786.69	0.047
787.12	0.047
787.56	0.051
788.00	0.046
788.43	0.047
788.87	0.048
789.31	0.046
789.75	0.051
790.18	0.045
790.62	0.047
791.06	0.046
791.49	0.048
791.93	0.045
792.37	0.044
792.80	0.045
793.24	0.050
793.68	0.045
794.11	0.050
794.55	0.048
794.99	0.048
795.42	0.047
795.86	0.046
796.30	0.048
796.73	0.047
797.17	0.047
797.61	0.045
798.04	0.043
798.48	0.045
798.91	0.045
799.35	0.042
799.79	0.048
800.22	0.044
800.66	0.043
801.10	0.048
801.53	0.046
801.97	0.046
802.40	0.046
802.84	0.047
803.28	0.043
803.71	0.048
804.15	0.049
804.58	0.044
805.02	0.042
805.46	0.046
805.89	0.047
806.33	0.042
806.76	0.044
807.20	0.047
807.63	0.046
808.07	0.044
808.51	0.041
808.94	0.043
809.38	0.048
809.81	0.045
810.25	0.045
810.68	0.048
811.12	0.045
811.55	0.046
811.99	0.047
812.42	0.043
812.86	0.046
813.29	0.047
813.73	0.050
814.17	0.047
814.60	0.044
815.04	0.045
815.47	0.047
815.91	0.047
816.34	0.046
816.78	0.045
817.21	0.041
817.65	0.044
818.08	0.049
818.52	0.042
818.95	0.046
819.39	0.048
819.82	0.044
820.25	0.051
820.69	0.045
821.12	0.043
821.56	0.049
821.99	0.042
822.43	0.045
822.86	0.044
823.30	0.047
823.73	0.039
824.17	0.047
824.60	0.043
825.04	0.050
825.47	0.043
825.90	0.047
826.34	0.049
826.77	0.048
827.21	0.046
827.64	0.047
828.08	0.046
828.51	0.049
828.94	0.046
829.38	0.050
829.81	0.052
830.25	0.049
830.68	0.053
831.11	0.055
831.55	0.050
831.98	0.053
832.42	0.054
832.85	0.049
833.28	0.047
833.72	0.047
834.15	0.055
834.58	0.056
835.02	0.049
835.45	0.049
835.88	0.055
836.32	0.053
836.75	0.048
837.19	0.054
837.62	0.053
838.05	0.060
838.49	0.054
838.92	0.048
839.35	0.056
839.79	0.052
840.22	0.051
840.65	0.056
841.09	0.055
841.52	0.051
841.95	0.054
842.39	0.049
842.82	0.046
843.25	0.051
843.68	0.052
844.12	0.052
844.55	0.054
844.98	0.049
845.42	0.050
845.85	0.057
846.28	0.054
846.71	0.050
847.15	0.052
847.58	0.052
848.01	0.051
848.45	0.051
848.88	0.061
849.31	0.058
849.74	0.054
850.18	0.052
850.61	0.053
851.04	0.054
851.47	0.056
851.91	0.053
852.34	0.052
852.77	0.057
853.20	0.059
853.64	0.052
854.07	0.059
854.50	0.063
854.93	0.056
855.36	0.053
855.80	0.054
856.23	0.055
856.66	0.055
857.09	0.054
857.52	0.059
857.96	0.056
858.39	0.058
858.82	0.056
859.25	0.059
859.68	0.055
860.12	0.061
860.55	0.056
860.98	0.052
861.41	0.056
861.84	0.055
862.27	0.059
862.71	0.057
863.14	0.054
863.57	0.052
864.00	0.057
864.43	0.055
864.86	0.054
865.30	0.054
865.73	0.060
866.16	0.060
866.59	0.059
867.02	0.059
867.45	0.057
867.88	0.056
868.31	0.054
868.75	0.057
869.18	0.062
869.61	0.059
870.04	0.059
870.47	0.062
870.90	0.053
871.33	0.054
871.76	0.063
872.19	0.052
872.62	0.053
873.06	0.063
873.49	0.067
873.92	0.056
874.35	0.053
874.78	0.061
875.21	0.062
875.64	0.062
876.07	0.062
876.50	0.061
876.93	0.059
877.36	0.060
877.79	0.062
878.22	0.063
878.65	0.066
879.08	0.062
879.51	0.059
879.94	0.060
880.37	0.062
880.80	0.060
881.23	0.065
881.67	0.060
882.10	0.055
882.53	0.059
882.96	0.059
883.39	0.055
883.82	0.061
884.25	0.069
884.68	0.064
885.11	0.063
885.54	0.060
885.97	0.063
886.39	0.068
886.82	0.062
887.25	0.070
887.68	0.064
888.11	0.060
888.54	0.062
888.97	0.059
889.40	0.063
889.83	0.068
890.26	0.069
890.69	0.063
891.12	0.067
891.55	0.063
891.98	0.065
892.41	0.064
892.84	0.063
893.27	0.063
893.70	0.069
894.13	0.070
894.56	0.068
894.98	0.064
895.41	0.066
895.84	0.069
896.27	0.066
896.70	0.067
897.13	0.075
897.56	0.071
897.99	0.071
898.42	0.072
898.85	0.076
899.27	0.073
899.70	0.072
900.13	0.073
900.56	0.069
900.99	0.068
901.42	0.069
901.85	0.075
902.28	0.069
902.70	0.075
903.13	0.071
903.56	0.072
903.99	0.069
904.42	0.072
904.85	0.069
905.27	0.071
905.70	0.069
906.13	0.073
906.56	0.074
906.99	0.068
907.42	0.070
907.84	0.068
908.27	0.072
908.70	0.071
909.13	0.073
909.56	0.071
909.98	0.071
910.41	0.073
910.84	0.069
911.27	0.067
911.70	0.070
912.12	0.072
912.55	0.070
912.98	0.072
913.41	0.072
913.84	0.070
914.26	0.068
914.69	0.071
915.12	0.071
915.55	0.075
915.97	0.074
916.40	0.070
916.83	0.072
917.26	0.071
917.68	0.070
918.11	0.073
918.54	0.073
918.97	0.073
919.39	0.072
919.82	0.073
920.25	0.073
920.67	0.074
921.10	0.070
921.53	0.076
921.96	0.076
922.38	0.074
922.81	0.080
923.24	0.077
923.66	0.075
924.09	0.072
924.52	0.079
924.94	0.080
925.37	0.076
925.80	0.081
926.22	0.080
926.65	0.086
927.08	0.077
927.50	0.083
927.93	0.090
928.36	0.084
928.78	0.084
929.21	0.092
929.64	0.093
930.06	0.086
930.49	0.086
930.92	0.087
931.34	0.092
931.77	0.089
932.20	0.090
932.62	0.096
933.05	0.090
933.47	0.093
933.90	0.097
934.33	0.097
934.75	0.095
935.18	0.099
935.61	0.102
936.03	0.100
936.46	0.100
936.88	0.107
937.31	0.108
937.73	0.109
938.16	0.102
938.59	0.113
939.01	0.114
939.44	0.116
939.86	0.112
940.29	0.116
940.71	0.112
941.14	0.120
941.57	0.122
941.99	0.129
942.42	0.123
942.84	0.121
943.27	0.127
943.69	0.129
944.12	0.138
944.54	0.139
944.97	0.144
945.39	0.128
945.82	0.138
946.24	0.144
946.67	0.138
947.09	0.147
947.52	0.143
947.94	0.149
948.37	0.148
948.79	0.158
949.22	0.162
949.64	0.155
950.07	0.161
950.49	0.163
950.92	0.165
951.34	0.167
951.77	0.173
952.19	0.178
952.62	0.183
953.04	0.181
953.47	0.178
953.89	0.183
954.32	0.194
954.74	0.190
955.17	0.192
955.59	0.198
956.01	0.199
956.44	0.201
956.86	0.207
957.29	0.210
957.71	0.206
958.14	0.215
958.56	0.213
958.98	0.224
959.41	0.224
959.83	0.222
960.26	0.230
960.68	0.224
961.10	0.226
961.53	0.228
961.95	0.233
962.38	0.236
962.80	0.228
963.22	0.230
963.65	0.233
964.07	0.231
964.50	0.229
964.92	0.235
965.34	0.231
965.77	0.238
966.19	0.233
966.61	0.237
967.04	0.229
967.46	0.240
967.88	0.240
968.31	0.242
968.73	0.232
969.15	0.238
969.58	0.244
970.00	0.238
970.42	0.238
970.85	0.238
971.27	0.237
971.69	0.243
972.12	0.243
972.54	0.250
972.96	0.241
973.39	0.238
973.81	0.237
974.23	0.247
974.65	0.248
975.08	0.249
975.50	0.248
975.92	0.246
976.35	0.238
976.77	0.250
977.19	0.243
977.61	0.245
978.04	0.251
978.46	0.251
978.88	0.245
979.30	0.241
979.73	0.242
980.15	0.246
980.57	0.243
980.99	0.241
981.42	0.244
981.84	0.241
982.26	0.238
982.68	0.239
983.11	0.238
983.53	0.244
983.95	0.246
984.37	0.240
984.79	0.238
985.22	0.241
985.64	0.240
986.06	0.236
986.48	0.238
986.90	0.234
987.33	0.239
987.75	0.241
988.17	0.248
988.59	0.232
989.01	0.238
989.43	0.235
989.86	0.243
990.28	0.235
990.70	0.232
991.12	0.236
991.54	0.234
991.96	0.239
992.39	0.234
992.81	0.235
993.23	0.225
993.65	0.227
994.07	0.233
994.49	0.224
994.91	0.220
995.34	0.222
995.76	0.228
996.18	0.219
996.60	0.224
997.02	0.236
997.44	0.223
997.86	0.214
998.28	0.221
998.70	0.229
999.12	0.222
999.55	0.223
999.97	0.216
1000.39	0.211
1000.81	0.220
1001.23	0.216
1001.65	0.221
1002.07	0.216
1002.49	0.218
1002.91	0.212
1003.33	0.213
1003.75	0.210
1004.17	0.214
1004.59	0.221
1005.01	0.213
1005.43	0.198
1005.85	0.207
1006.28	0.213
1006.70	0.202
1007.12	0.199
1007.54	0.202
1007.96	0.201
1008.38	0.200
1008.80	0.201
1009.22	0.197
1009.64	0.191
1010.06	0.194
1010.48	0.189
1010.90	0.196
1011.32	0.186
1011.74	0.182
1012.16	0.190
1012.58	0.192
1013.00	0.178
1013.42	0.184
1013.84	0.194
1014.26	0.187
1014.67	0.184
1015.09	0.184
1015.51	0.191
1015.93	0.183
1016.35	0.183
1016.77	0.190
1017.19	0.179
1017.61	0.177
1018.03	0.186
1018.45	0.192
1018.87	0.167
1019.29	0.176
1019.71	0.177
1020.13	0.172
1020.55	0.171
1020.97	0.166
1021.38	0.164
1021.80	0.175
1022.22	0.166
1022.64	0.166
1023.06	0.156
1023.48	0.158
1023.90	0.163
1024.32	0.174
1024.74	0.163
1025.15	0.168
1025.57	0.155
1025.99	0.171
1026.41	0.161
1026.83	0.166
1027.25	0.166
1027.67	0.167
1028.08	0.161
1028.50	0.159
1028.92	0.162
1029.34	0.150
1029.76	0.149
1030.18	0.143
1030.60	0.145
1031.01	0.151
1031.43	0.142
1031.85	0.140
1032.27	0.152
1032.69	0.136
1033.10	0.138
1033.52	0.151
1033.94	0.139
1034.36	0.153
1034.78	0.138
1035.19	0.130
1035.61	0.134
1036.03	0.127
1036.45	0.138
1036.87	0.147
1037.28	0.133
1037.70	0.120
1038.12	0.128
1038.54	0.129
1038.95	0.118
1039.37	0.135
1039.79	0.135
1040.21	0.115
1040.62	0.125
1041.04	0.122
1041.46	0.116
1041.88	0.119
1042.29	0.111
1042.71	0.120
1043.13	0.099
1043.55	0.110
1043.96	0.120
1044.38	0.111
1044.80	0.110
1045.21	0.100
1045.63	0.113
1046.05	0.091
1046.47	0.119
1046.88	0.104
1047.30	0.145
1047.72	0.125
1048.13	0.102
1048.55	0.096
1048.97	0.151
1049.38	0.109
1049.80	0.103
1050.22	0.093
1050.63	0.118
1051.05	0.092
1051.47	0.079
1051.88	0.123
1052.30	0.110
1052.72	0.112
1053.13	0.128
1053.55	0.138
1053.97	0.122
1054.38	0.095
1054.80	0.116
1055.21	0.103
1055.63	0.112
1056.05	0.132
1056.46	0.129
1056.88	0.119
1057.29	0.079
1057.71	0.117
1058.13	0.114
1058.54	0.085
1058.96	0.106
1059.37	0.121
1059.79	0.133
1060.21	0.076
1060.62	0.110
1061.04	0.148
1061.45	0.068
1061.87	0.126
1062.28	0.123
1062.70	0.113
1063.12	0.092
1063.53	0.085
1063.95	0.150
1064.36	0.074
1064.78	0.036
1065.19	0.150
1065.61	0.110
1066.02	0.092
1066.44	0.014
1066.85	0.124
1067.27	0.150
1067.68	0.078
1068.10	0.075
1068.51	0.181
1068.93	0.167
1069.35	0.096
1069.76	0.102
1070.17	0.134
1070.59	0.130
1071.00	0.114
1071.42	0.139
1071.83	0.226
1072.25	0.067
1072.66	0.208
1073.08	0.230
1073.49	0.038
1073.91	0.158
1074.32	0.251
1074.74	0.321
1075.15	0.084
1075.57	0.223
1075.98	0.306
1076.40	0.209
1076.81	0.151
1077.22	0.255
1077.64	0.146
1078.05	0.085
1078.47	-0.025
1078.88	0.155
1079.30	0.167
1079.71	0.344
1080.12	0.290
1080.54	0.157
1080.95	0.170
1081.37	-0.017
1081.78	0.066
1082.19	0.301
1082.61	-0.045
1083.02	0.117
1083.44	0.505
1083.85	0.081
1084.26	-0.011
1084.68	-0.022
1085.09	0.059
1085.50	0.284
1085.92	0.386
1086.33	0.393
1086.74	0.147
1087.16	0.087
1087.57	0.184
1087.98	0.328
1088.40	0.184
1088.81	0.205
1089.22	0.298
1089.64	1.421
1090.05	0.043
1090.46	-0.116
1090.88	0.207
1091.29	0.238
1091.70	0.325
1092.12	0.082
1092.53	0.409
1092.94	0.122
1093.36	-0.166
1093.77	0.770
1094.18	0.556
1094.59	0.065
1095.01	0.073
1095.42	0.367
1095.83	2.068
1096.25	0.201
1096.66	0.292
1097.07	0.207
1097.48	0.246
1097.90	-0.090
1098.31	0.254
1098.72	-0.094
1099.13	0.208
>>>>>End Processed Spectral Data<<<<<
