SpectraSuite Data File
++++++++++++++++++++++++++++++++++++
Date: Tue Jul 11 16:31:02 CEST 2017
User: IPCE
Dark Spectrum Present: Yes
Reference Spectrum Present: Yes
Number of Sampled Component Spectra: 1
Spectrometers: HR+C0708
Integration Time (usec): 1000 (HR+C0708)
Spectra Averaged: 10 (HR+C0708)
Boxcar Smoothing: 0 (HR+C0708)
Correct for Electrical Dark: No (HR+C0708)
Strobe/Lamp Enabled: No (HR+C0708)
Correct for Detector Non-linearity: No (HR+C0708)
Correct for Stray Light: No (HR+C0708)
Number of Pixels in Processed Spectrum: 2048
>>>>>Begin Processed Spectral Data<<<<<
188.76	0.101
189.23	0.287
189.70	-0.393
190.17	-0.009
190.64	0.016
191.12	0.165
191.59	0.090
192.06	0.155
192.53	0.276
193.01	-0.000
193.48	-0.421
193.95	0.296
194.42	0.202
194.90	0.174
195.37	-0.049
195.84	-0.162
196.31	1.221
196.78	0.144
197.26	0.186
197.73	0.218
198.20	0.188
198.67	0.071
199.14	0.010
199.62	0.106
200.09	0.073
200.56	0.204
201.03	0.136
201.50	0.331
201.97	0.133
202.45	0.236
202.92	0.241
203.39	0.302
203.86	0.306
204.33	0.179
204.80	0.268
205.28	0.287
205.75	0.236
206.22	0.264
206.69	0.551
207.16	0.132
207.63	0.195
208.11	0.264
208.58	0.245
209.05	0.326
209.52	0.334
209.99	0.187
210.46	0.234
210.93	0.278
211.41	0.277
211.88	0.161
212.35	0.185
212.82	0.163
213.29	0.168
213.76	0.311
214.23	0.253
214.70	0.233
215.18	0.280
215.65	0.165
216.12	0.305
216.59	0.204
217.06	0.405
217.53	0.323
218.00	0.236
218.47	0.325
218.94	0.192
219.41	0.254
219.89	0.420
220.36	0.499
220.83	0.311
221.30	0.340
221.77	0.429
222.24	0.340
222.71	0.420
223.18	0.446
223.65	0.435
224.12	0.337
224.59	0.504
225.06	0.559
225.54	0.516
226.01	0.575
226.48	0.650
226.95	0.591
227.42	0.806
227.89	0.689
228.36	0.790
228.83	0.792
229.30	0.784
229.77	0.917
230.24	1.036
230.71	1.046
231.18	1.061
231.65	1.178
232.12	1.348
232.59	1.295
233.06	1.328
233.53	1.353
234.00	1.505
234.47	1.429
234.94	1.501
235.41	1.536
235.88	1.526
236.35	1.479
236.82	1.645
237.29	1.778
237.76	1.698
238.23	1.667
238.70	1.889
239.17	1.856
239.64	1.770
240.11	2.008
240.58	1.980
241.05	1.913
241.52	1.924
241.99	2.030
242.46	1.974
242.93	2.005
243.40	2.037
243.87	2.198
244.34	2.105
244.81	2.034
245.28	2.067
245.75	2.241
246.22	2.096
246.69	2.126
247.16	2.144
247.63	2.111
248.10	2.129
248.57	2.136
249.04	2.115
249.51	2.262
249.98	2.064
250.45	2.220
250.92	2.086
251.39	2.057
251.85	1.956
252.32	1.922
252.79	1.769
253.26	1.696
253.73	1.621
254.20	1.530
254.67	1.434
255.14	1.374
255.61	1.300
256.08	1.268
256.55	1.201
257.02	1.149
257.49	1.119
257.95	1.069
258.42	1.030
258.89	0.996
259.36	0.970
259.83	0.944
260.30	0.916
260.77	0.895
261.24	0.870
261.71	0.853
262.17	0.830
262.64	0.816
263.11	0.796
263.58	0.777
264.05	0.764
264.52	0.744
264.99	0.735
265.46	0.717
265.92	0.708
266.39	0.695
266.86	0.678
267.33	0.672
267.80	0.664
268.27	0.651
268.74	0.638
269.20	0.630
269.67	0.622
270.14	0.608
270.61	0.601
271.08	0.593
271.55	0.584
272.01	0.577
272.48	0.569
272.95	0.565
273.42	0.555
273.89	0.549
274.36	0.543
274.82	0.537
275.29	0.532
275.76	0.525
276.23	0.520
276.70	0.517
277.16	0.510
277.63	0.506
278.10	0.503
278.57	0.501
279.04	0.497
279.50	0.492
279.97	0.489
280.44	0.483
280.91	0.483
281.38	0.480
281.84	0.479
282.31	0.476
282.78	0.476
283.25	0.472
283.72	0.473
284.18	0.470
284.65	0.466
285.12	0.464
285.59	0.466
286.05	0.463
286.52	0.463
286.99	0.461
287.46	0.460
287.92	0.461
288.39	0.462
288.86	0.460
289.33	0.459
289.79	0.455
290.26	0.454
290.73	0.451
291.20	0.447
291.66	0.447
292.13	0.441
292.60	0.441
293.07	0.437
293.53	0.428
294.00	0.425
294.47	0.420
294.93	0.418
295.40	0.408
295.87	0.403
296.34	0.398
296.80	0.392
297.27	0.383
297.74	0.378
298.20	0.371
298.67	0.366
299.14	0.359
299.60	0.352
300.07	0.347
300.54	0.337
301.01	0.330
301.47	0.326
301.94	0.317
302.41	0.310
302.87	0.307
303.34	0.300
303.81	0.289
304.27	0.286
304.74	0.283
305.21	0.279
305.67	0.269
306.14	0.265
306.61	0.265
307.07	0.259
307.54	0.254
308.01	0.248
308.47	0.245
308.94	0.240
309.40	0.236
309.87	0.235
310.34	0.230
310.80	0.229
311.27	0.225
311.74	0.224
312.20	0.219
312.67	0.217
313.13	0.219
313.60	0.215
314.07	0.212
314.53	0.209
315.00	0.208
315.47	0.206
315.93	0.203
316.40	0.206
316.86	0.201
317.33	0.200
317.80	0.197
318.26	0.196
318.73	0.197
319.19	0.194
319.66	0.195
320.13	0.191
320.59	0.193
321.06	0.188
321.52	0.189
321.99	0.188
322.45	0.187
322.92	0.185
323.39	0.182
323.85	0.183
324.32	0.182
324.78	0.181
325.25	0.178
325.71	0.178
326.18	0.174
326.64	0.171
327.11	0.174
327.58	0.170
328.04	0.170
328.51	0.170
328.97	0.169
329.44	0.168
329.90	0.165
330.37	0.165
330.83	0.166
331.30	0.161
331.76	0.161
332.23	0.160
332.69	0.157
333.16	0.159
333.62	0.154
334.09	0.151
334.56	0.153
335.02	0.149
335.49	0.147
335.95	0.144
336.42	0.143
336.88	0.140
337.35	0.139
337.81	0.142
338.28	0.138
338.74	0.140
339.20	0.141
339.67	0.138
340.13	0.135
340.60	0.137
341.06	0.133
341.53	0.136
341.99	0.135
342.46	0.130
342.92	0.130
343.39	0.129
343.85	0.125
344.32	0.127
344.78	0.128
345.25	0.124
345.71	0.129
346.17	0.125
346.64	0.123
347.10	0.123
347.57	0.122
348.03	0.122
348.50	0.119
348.96	0.118
349.43	0.121
349.89	0.116
350.35	0.120
350.82	0.117
351.28	0.114
351.75	0.118
352.21	0.119
352.67	0.116
353.14	0.112
353.60	0.111
354.07	0.107
354.53	0.111
355.00	0.108
355.46	0.108
355.92	0.105
356.39	0.109
356.85	0.104
357.31	0.105
357.78	0.107
358.24	0.102
358.71	0.104
359.17	0.100
359.63	0.099
360.10	0.099
360.56	0.095
361.03	0.096
361.49	0.094
361.95	0.093
362.42	0.089
362.88	0.091
363.34	0.087
363.81	0.087
364.27	0.087
364.73	0.086
365.20	0.086
365.66	0.087
366.12	0.083
366.59	0.082
367.05	0.082
367.51	0.081
367.98	0.077
368.44	0.081
368.90	0.079
369.37	0.081
369.83	0.077
370.29	0.076
370.76	0.078
371.22	0.077
371.68	0.075
372.15	0.075
372.61	0.075
373.07	0.076
373.54	0.077
374.00	0.076
374.46	0.077
374.92	0.072
375.39	0.075
375.85	0.077
376.31	0.074
376.78	0.075
377.24	0.073
377.70	0.073
378.16	0.073
378.63	0.071
379.09	0.072
379.55	0.073
380.01	0.070
380.48	0.072
380.94	0.075
381.40	0.072
381.87	0.069
382.33	0.070
382.79	0.069
383.25	0.070
383.72	0.071
384.18	0.071
384.64	0.067
385.10	0.068
385.56	0.068
386.03	0.069
386.49	0.066
386.95	0.067
387.41	0.069
387.88	0.069
388.34	0.070
388.80	0.067
389.26	0.069
389.72	0.068
390.19	0.067
390.65	0.066
391.11	0.069
391.57	0.067
392.04	0.071
392.50	0.066
392.96	0.064
393.42	0.066
393.88	0.071
394.34	0.068
394.81	0.067
395.27	0.061
395.73	0.063
396.19	0.066
396.65	0.065
397.12	0.066
397.58	0.063
398.04	0.064
398.50	0.066
398.96	0.064
399.42	0.062
399.89	0.065
400.35	0.061
400.81	0.064
401.27	0.067
401.73	0.062
402.19	0.063
402.65	0.063
403.12	0.061
403.58	0.062
404.04	0.061
404.50	0.062
404.96	0.061
405.42	0.061
405.88	0.058
406.34	0.062
406.81	0.060
407.27	0.059
407.73	0.058
408.19	0.055
408.65	0.059
409.11	0.060
409.57	0.058
410.03	0.058
410.49	0.056
410.96	0.059
411.42	0.058
411.88	0.060
412.34	0.057
412.80	0.059
413.26	0.059
413.72	0.055
414.18	0.059
414.64	0.055
415.10	0.058
415.56	0.056
416.02	0.054
416.48	0.055
416.95	0.054
417.41	0.055
417.87	0.053
418.33	0.054
418.79	0.057
419.25	0.056
419.71	0.053
420.17	0.055
420.63	0.053
421.09	0.055
421.55	0.055
422.01	0.051
422.47	0.056
422.93	0.055
423.39	0.057
423.85	0.054
424.31	0.055
424.77	0.053
425.23	0.052
425.69	0.055
426.15	0.055
426.61	0.056
427.07	0.055
427.53	0.055
427.99	0.055
428.45	0.054
428.91	0.052
429.37	0.055
429.83	0.054
430.29	0.054
430.75	0.051
431.21	0.053
431.67	0.055
432.13	0.051
432.59	0.051
433.05	0.051
433.51	0.054
433.97	0.053
434.43	0.052
434.89	0.052
435.35	0.053
435.81	0.050
436.27	0.051
436.73	0.052
437.19	0.050
437.65	0.047
438.11	0.054
438.57	0.052
439.03	0.049
439.48	0.049
439.94	0.048
440.40	0.052
440.86	0.054
441.32	0.051
441.78	0.051
442.24	0.053
442.70	0.047
443.16	0.052
443.62	0.050
444.08	0.052
444.54	0.052
444.99	0.049
445.45	0.052
445.91	0.051
446.37	0.050
446.83	0.050
447.29	0.051
447.75	0.050
448.21	0.050
448.67	0.048
449.12	0.048
449.58	0.049
450.04	0.047
450.50	0.046
450.96	0.046
451.42	0.047
451.88	0.052
452.34	0.050
452.79	0.048
453.25	0.051
453.71	0.046
454.17	0.048
454.63	0.050
455.09	0.050
455.55	0.048
456.00	0.046
456.46	0.045
456.92	0.051
457.38	0.052
457.84	0.046
458.30	0.048
458.75	0.047
459.21	0.049
459.67	0.048
460.13	0.047
460.59	0.051
461.04	0.048
461.50	0.048
461.96	0.047
462.42	0.050
462.88	0.047
463.33	0.048
463.79	0.049
464.25	0.047
464.71	0.049
465.17	0.049
465.62	0.049
466.08	0.049
466.54	0.046
467.00	0.048
467.46	0.049
467.91	0.051
468.37	0.049
468.83	0.049
469.29	0.049
469.74	0.050
470.20	0.049
470.66	0.048
471.12	0.050
471.57	0.050
472.03	0.049
472.49	0.049
472.95	0.048
473.40	0.049
473.86	0.049
474.32	0.048
474.78	0.049
475.23	0.050
475.69	0.051
476.15	0.051
476.60	0.048
477.06	0.049
477.52	0.049
477.98	0.050
478.43	0.049
478.89	0.050
479.35	0.048
479.80	0.050
480.26	0.049
480.72	0.050
481.18	0.049
481.63	0.049
482.09	0.049
482.55	0.049
483.00	0.049
483.46	0.050
483.92	0.050
484.37	0.050
484.83	0.049
485.29	0.051
485.74	0.051
486.20	0.050
486.66	0.049
487.11	0.051
487.57	0.050
488.03	0.050
488.48	0.050
488.94	0.050
489.40	0.050
489.85	0.051
490.31	0.049
490.77	0.053
491.22	0.050
491.68	0.048
492.13	0.050
492.59	0.050
493.05	0.049
493.50	0.048
493.96	0.050
494.42	0.052
494.87	0.051
495.33	0.050
495.78	0.050
496.24	0.047
496.70	0.050
497.15	0.051
497.61	0.050
498.06	0.051
498.52	0.051
498.98	0.051
499.43	0.048
499.89	0.048
500.34	0.049
500.80	0.050
501.25	0.050
501.71	0.050
502.17	0.051
502.62	0.049
503.08	0.049
503.53	0.048
503.99	0.050
504.44	0.050
504.90	0.049
505.36	0.047
505.81	0.047
506.27	0.047
506.72	0.050
507.18	0.049
507.63	0.048
508.09	0.049
508.54	0.050
509.00	0.050
509.45	0.049
509.91	0.051
510.36	0.048
510.82	0.050
511.27	0.047
511.73	0.049
512.19	0.047
512.64	0.051
513.10	0.048
513.55	0.047
514.01	0.049
514.46	0.048
514.92	0.047
515.37	0.045
515.83	0.045
516.28	0.050
516.73	0.048
517.19	0.048
517.64	0.047
518.10	0.049
518.55	0.049
519.01	0.046
519.46	0.047
519.92	0.047
520.37	0.049
520.83	0.048
521.28	0.050
521.74	0.047
522.19	0.048
522.65	0.048
523.10	0.049
523.55	0.047
524.01	0.048
524.46	0.048
524.92	0.049
525.37	0.050
525.83	0.048
526.28	0.049
526.73	0.050
527.19	0.049
527.64	0.051
528.10	0.050
528.55	0.049
529.01	0.049
529.46	0.050
529.91	0.048
530.37	0.048
530.82	0.050
531.28	0.050
531.73	0.050
532.18	0.049
532.64	0.049
533.09	0.050
533.54	0.051
534.00	0.049
534.45	0.051
534.91	0.049
535.36	0.051
535.81	0.048
536.27	0.053
536.72	0.049
537.17	0.053
537.63	0.051
538.08	0.053
538.54	0.052
538.99	0.050
539.44	0.053
539.90	0.054
540.35	0.051
540.80	0.052
541.26	0.050
541.71	0.054
542.16	0.052
542.62	0.055
543.07	0.053
543.52	0.054
543.98	0.055
544.43	0.052
544.88	0.054
545.34	0.056
545.79	0.056
546.24	0.056
546.69	0.055
547.15	0.055
547.60	0.058
548.05	0.056
548.51	0.057
548.96	0.057
549.41	0.060
549.86	0.060
550.32	0.058
550.77	0.060
551.22	0.059
551.68	0.057
552.13	0.058
552.58	0.061
553.03	0.061
553.49	0.060
553.94	0.059
554.39	0.063
554.84	0.065
555.30	0.063
555.75	0.062
556.20	0.064
556.65	0.064
557.11	0.064
557.56	0.068
558.01	0.065
558.46	0.065
558.92	0.067
559.37	0.068
559.82	0.067
560.27	0.067
560.72	0.066
561.18	0.068
561.63	0.069
562.08	0.069
562.53	0.069
562.99	0.069
563.44	0.071
563.89	0.071
564.34	0.074
564.79	0.072
565.25	0.074
565.70	0.073
566.15	0.075
566.60	0.075
567.05	0.076
567.50	0.077
567.96	0.078
568.41	0.079
568.86	0.077
569.31	0.081
569.76	0.080
570.21	0.079
570.67	0.078
571.12	0.082
571.57	0.081
572.02	0.084
572.47	0.084
572.92	0.085
573.37	0.083
573.83	0.087
574.28	0.086
574.73	0.086
575.18	0.087
575.63	0.089
576.08	0.088
576.53	0.088
576.98	0.089
577.44	0.091
577.89	0.091
578.34	0.092
578.79	0.096
579.24	0.094
579.69	0.095
580.14	0.097
580.59	0.097
581.04	0.098
581.49	0.101
581.95	0.101
582.40	0.101
582.85	0.102
583.30	0.103
583.75	0.104
584.20	0.107
584.65	0.106
585.10	0.106
585.55	0.107
586.00	0.112
586.45	0.113
586.90	0.113
587.35	0.111
587.80	0.115
588.25	0.117
588.71	0.115
589.16	0.118
589.61	0.123
590.06	0.123
590.51	0.124
590.96	0.123
591.41	0.126
591.86	0.129
592.31	0.130
592.76	0.131
593.21	0.132
593.66	0.132
594.11	0.135
594.56	0.136
595.01	0.138
595.46	0.139
595.91	0.140
596.36	0.143
596.81	0.146
597.26	0.145
597.71	0.149
598.16	0.150
598.61	0.152
599.06	0.154
599.51	0.151
599.96	0.155
600.41	0.157
600.86	0.160
601.31	0.157
601.76	0.162
602.21	0.161
602.65	0.164
603.10	0.166
603.55	0.168
604.00	0.167
604.45	0.170
604.90	0.171
605.35	0.174
605.80	0.171
606.25	0.174
606.70	0.178
607.15	0.177
607.60	0.178
608.05	0.179
608.50	0.180
608.95	0.182
609.39	0.183
609.84	0.184
610.29	0.184
610.74	0.185
611.19	0.186
611.64	0.188
612.09	0.190
612.54	0.191
612.99	0.191
613.44	0.190
613.88	0.193
614.33	0.191
614.78	0.191
615.23	0.195
615.68	0.197
616.13	0.194
616.58	0.195
617.03	0.195
617.47	0.197
617.92	0.200
618.37	0.200
618.82	0.198
619.27	0.198
619.72	0.198
620.17	0.200
620.61	0.199
621.06	0.203
621.51	0.201
621.96	0.201
622.41	0.205
622.86	0.203
623.30	0.204
623.75	0.205
624.20	0.207
624.65	0.207
625.10	0.207
625.54	0.209
625.99	0.210
626.44	0.209
626.89	0.209
627.34	0.213
627.78	0.214
628.23	0.213
628.68	0.217
629.13	0.216
629.58	0.216
630.02	0.219
630.47	0.217
630.92	0.221
631.37	0.222
631.81	0.222
632.26	0.224
632.71	0.228
633.16	0.227
633.61	0.230
634.05	0.230
634.50	0.232
634.95	0.235
635.40	0.234
635.84	0.238
636.29	0.241
636.74	0.240
637.18	0.243
637.63	0.244
638.08	0.246
638.53	0.247
638.97	0.247
639.42	0.254
639.87	0.255
640.32	0.256
640.76	0.258
641.21	0.260
641.66	0.263
642.10	0.264
642.55	0.269
643.00	0.270
643.44	0.271
643.89	0.274
644.34	0.277
644.79	0.281
645.23	0.283
645.68	0.286
646.13	0.286
646.57	0.287
647.02	0.292
647.47	0.294
647.91	0.294
648.36	0.299
648.81	0.302
649.25	0.303
649.70	0.304
650.15	0.307
650.59	0.309
651.04	0.313
651.48	0.311
651.93	0.317
652.38	0.318
652.82	0.320
653.27	0.320
653.72	0.325
654.16	0.326
654.61	0.327
655.06	0.329
655.50	0.330
655.95	0.330
656.39	0.331
656.84	0.334
657.29	0.333
657.73	0.336
658.18	0.339
658.62	0.338
659.07	0.343
659.52	0.342
659.96	0.341
660.41	0.343
660.85	0.341
661.30	0.344
661.74	0.347
662.19	0.345
662.64	0.343
663.08	0.345
663.53	0.346
663.97	0.344
664.42	0.345
664.86	0.342
665.31	0.342
665.75	0.342
666.20	0.339
666.65	0.345
667.09	0.341
667.54	0.339
667.98	0.337
668.43	0.337
668.87	0.336
669.32	0.332
669.76	0.329
670.21	0.327
670.65	0.323
671.10	0.319
671.54	0.314
671.99	0.312
672.43	0.306
672.88	0.303
673.32	0.299
673.77	0.296
674.21	0.290
674.66	0.285
675.10	0.281
675.55	0.276
675.99	0.269
676.44	0.265
676.88	0.258
677.33	0.252
677.77	0.243
678.22	0.242
678.66	0.236
679.11	0.224
679.55	0.222
679.99	0.216
680.44	0.207
680.88	0.203
681.33	0.195
681.77	0.191
682.22	0.184
682.66	0.179
683.11	0.171
683.55	0.168
683.99	0.162
684.44	0.158
684.88	0.152
685.33	0.144
685.77	0.140
686.21	0.137
686.66	0.131
687.10	0.125
687.55	0.122
687.99	0.119
688.44	0.112
688.88	0.110
689.32	0.105
689.77	0.100
690.21	0.097
690.65	0.094
691.10	0.091
691.54	0.086
691.99	0.085
692.43	0.080
692.87	0.079
693.32	0.075
693.76	0.073
694.20	0.072
694.65	0.068
695.09	0.066
695.53	0.066
695.98	0.062
696.42	0.057
696.86	0.057
697.31	0.057
697.75	0.055
698.19	0.053
698.64	0.051
699.08	0.050
699.52	0.049
699.97	0.049
700.41	0.048
700.85	0.044
701.30	0.046
701.74	0.041
702.18	0.043
702.63	0.040
703.07	0.041
703.51	0.038
703.96	0.038
704.40	0.039
704.84	0.036
705.28	0.037
705.73	0.033
706.17	0.034
706.61	0.033
707.06	0.034
707.50	0.033
707.94	0.032
708.38	0.032
708.83	0.033
709.27	0.031
709.71	0.032
710.15	0.030
710.60	0.031
711.04	0.030
711.48	0.028
711.92	0.032
712.37	0.032
712.81	0.031
713.25	0.029
713.69	0.029
714.13	0.028
714.58	0.027
715.02	0.026
715.46	0.027
715.90	0.027
716.35	0.025
716.79	0.028
717.23	0.027
717.67	0.026
718.11	0.024
718.56	0.026
719.00	0.026
719.44	0.024
719.88	0.029
720.32	0.028
720.76	0.026
721.21	0.029
721.65	0.029
722.09	0.026
722.53	0.029
722.97	0.029
723.41	0.027
723.86	0.028
724.30	0.025
724.74	0.026
725.18	0.026
725.62	0.026
726.06	0.029
726.50	0.025
726.95	0.024
727.39	0.027
727.83	0.027
728.27	0.025
728.71	0.026
729.15	0.028
729.59	0.028
730.03	0.029
730.48	0.029
730.92	0.028
731.36	0.028
731.80	0.028
732.24	0.028
732.68	0.028
733.12	0.031
733.56	0.029
734.00	0.028
734.44	0.031
734.89	0.031
735.33	0.030
735.77	0.029
736.21	0.030
736.65	0.033
737.09	0.029
737.53	0.030
737.97	0.034
738.41	0.031
738.85	0.030
739.29	0.029
739.73	0.033
740.17	0.031
740.61	0.034
741.05	0.033
741.49	0.029
741.93	0.032
742.37	0.029
742.81	0.032
743.26	0.030
743.70	0.031
744.14	0.030
744.58	0.033
745.02	0.030
745.46	0.030
745.90	0.032
746.34	0.031
746.78	0.028
747.22	0.030
747.66	0.031
748.10	0.030
748.54	0.032
748.98	0.028
749.42	0.033
749.86	0.030
750.29	0.032
750.73	0.031
751.17	0.029
751.61	0.031
752.05	0.029
752.49	0.030
752.93	0.031
753.37	0.032
753.81	0.031
754.25	0.030
754.69	0.030
755.13	0.031
755.57	0.031
756.01	0.028
756.45	0.027
756.89	0.030
757.33	0.033
757.77	0.029
758.21	0.031
758.64	0.031
759.08	0.031
759.52	0.029
759.96	0.031
760.40	0.031
760.84	0.030
761.28	0.032
761.72	0.029
762.16	0.029
762.60	0.031
763.03	0.030
763.47	0.029
763.91	0.025
764.35	0.027
764.79	0.032
765.23	0.029
765.67	0.028
766.11	0.030
766.54	0.030
766.98	0.029
767.42	0.030
767.86	0.031
768.30	0.031
768.74	0.030
769.17	0.033
769.61	0.032
770.05	0.028
770.49	0.027
770.93	0.029
771.37	0.028
771.80	0.031
772.24	0.029
772.68	0.031
773.12	0.027
773.56	0.030
774.00	0.031
774.43	0.030
774.87	0.029
775.31	0.030
775.75	0.028
776.19	0.029
776.62	0.031
777.06	0.029
777.50	0.030
777.94	0.029
778.37	0.030
778.81	0.032
779.25	0.030
779.69	0.032
780.13	0.030
780.56	0.029
781.00	0.033
781.44	0.030
781.88	0.029
782.31	0.032
782.75	0.033
783.19	0.029
783.63	0.031
784.06	0.029
784.50	0.032
784.94	0.031
785.37	0.029
785.81	0.030
786.25	0.026
786.69	0.028
787.12	0.031
787.56	0.030
788.00	0.025
788.43	0.029
788.87	0.032
789.31	0.030
789.75	0.030
790.18	0.030
790.62	0.031
791.06	0.030
791.49	0.032
791.93	0.031
792.37	0.028
792.80	0.029
793.24	0.029
793.68	0.027
794.11	0.032
794.55	0.025
794.99	0.030
795.42	0.027
795.86	0.029
796.30	0.027
796.73	0.031
797.17	0.031
797.61	0.027
798.04	0.025
798.48	0.030
798.91	0.029
799.35	0.029
799.79	0.027
800.22	0.028
800.66	0.026
801.10	0.029
801.53	0.029
801.97	0.027
802.40	0.027
802.84	0.033
803.28	0.028
803.71	0.027
804.15	0.032
804.58	0.026
805.02	0.026
805.46	0.026
805.89	0.030
806.33	0.029
806.76	0.029
807.20	0.032
807.63	0.032
808.07	0.030
808.51	0.023
808.94	0.030
809.38	0.032
809.81	0.027
810.25	0.031
810.68	0.030
811.12	0.027
811.55	0.026
811.99	0.031
812.42	0.030
812.86	0.028
813.29	0.027
813.73	0.031
814.17	0.027
814.60	0.028
815.04	0.029
815.47	0.026
815.91	0.029
816.34	0.030
816.78	0.028
817.21	0.028
817.65	0.028
818.08	0.029
818.52	0.029
818.95	0.030
819.39	0.033
819.82	0.029
820.25	0.034
820.69	0.025
821.12	0.024
821.56	0.029
821.99	0.027
822.43	0.027
822.86	0.029
823.30	0.026
823.73	0.027
824.17	0.032
824.60	0.027
825.04	0.029
825.47	0.031
825.90	0.033
826.34	0.031
826.77	0.032
827.21	0.029
827.64	0.024
828.08	0.035
828.51	0.034
828.94	0.027
829.38	0.032
829.81	0.030
830.25	0.030
830.68	0.034
831.11	0.034
831.55	0.034
831.98	0.035
832.42	0.035
832.85	0.035
833.28	0.033
833.72	0.036
834.15	0.040
834.58	0.042
835.02	0.033
835.45	0.035
835.88	0.034
836.32	0.035
836.75	0.035
837.19	0.033
837.62	0.039
838.05	0.038
838.49	0.031
838.92	0.035
839.35	0.040
839.79	0.035
840.22	0.033
840.65	0.032
841.09	0.039
841.52	0.038
841.95	0.038
842.39	0.035
842.82	0.037
843.25	0.038
843.68	0.039
844.12	0.038
844.55	0.038
844.98	0.034
845.42	0.031
845.85	0.043
846.28	0.040
846.71	0.040
847.15	0.039
847.58	0.038
848.01	0.036
848.45	0.039
848.88	0.042
849.31	0.038
849.74	0.042
850.18	0.033
850.61	0.041
851.04	0.041
851.47	0.042
851.91	0.041
852.34	0.038
852.77	0.040
853.20	0.041
853.64	0.040
854.07	0.042
854.50	0.041
854.93	0.042
855.36	0.040
855.80	0.038
856.23	0.042
856.66	0.045
857.09	0.040
857.52	0.041
857.96	0.038
858.39	0.042
858.82	0.040
859.25	0.036
859.68	0.042
860.12	0.044
860.55	0.041
860.98	0.037
861.41	0.038
861.84	0.039
862.27	0.042
862.71	0.041
863.14	0.040
863.57	0.041
864.00	0.043
864.43	0.042
864.86	0.036
865.30	0.041
865.73	0.040
866.16	0.045
866.59	0.042
867.02	0.044
867.45	0.049
867.88	0.042
868.31	0.040
868.75	0.040
869.18	0.047
869.61	0.041
870.04	0.045
870.47	0.048
870.90	0.042
871.33	0.037
871.76	0.046
872.19	0.038
872.62	0.043
873.06	0.049
873.49	0.052
873.92	0.043
874.35	0.042
874.78	0.042
875.21	0.047
875.64	0.049
876.07	0.041
876.50	0.050
876.93	0.044
877.36	0.046
877.79	0.046
878.22	0.044
878.65	0.050
879.08	0.048
879.51	0.043
879.94	0.045
880.37	0.051
880.80	0.043
881.23	0.048
881.67	0.049
882.10	0.043
882.53	0.043
882.96	0.047
883.39	0.044
883.82	0.046
884.25	0.052
884.68	0.058
885.11	0.048
885.54	0.053
885.97	0.045
886.39	0.054
886.82	0.050
887.25	0.055
887.68	0.051
888.11	0.051
888.54	0.049
888.97	0.050
889.40	0.051
889.83	0.054
890.26	0.051
890.69	0.056
891.12	0.057
891.55	0.053
891.98	0.056
892.41	0.055
892.84	0.055
893.27	0.053
893.70	0.058
894.13	0.054
894.56	0.056
894.98	0.053
895.41	0.053
895.84	0.055
896.27	0.053
896.70	0.053
897.13	0.060
897.56	0.062
897.99	0.056
898.42	0.057
898.85	0.063
899.27	0.053
899.70	0.056
900.13	0.057
900.56	0.058
900.99	0.053
901.42	0.054
901.85	0.059
902.28	0.055
902.70	0.059
903.13	0.058
903.56	0.053
903.99	0.062
904.42	0.060
904.85	0.055
905.27	0.060
905.70	0.058
906.13	0.059
906.56	0.064
906.99	0.055
907.42	0.059
907.84	0.056
908.27	0.058
908.70	0.056
909.13	0.061
909.56	0.056
909.98	0.058
910.41	0.058
910.84	0.055
911.27	0.056
911.70	0.057
912.12	0.058
912.55	0.056
912.98	0.057
913.41	0.062
913.84	0.056
914.26	0.056
914.69	0.062
915.12	0.059
915.55	0.061
915.97	0.061
916.40	0.057
916.83	0.057
917.26	0.056
917.68	0.058
918.11	0.056
918.54	0.057
918.97	0.059
919.39	0.062
919.82	0.061
920.25	0.060
920.67	0.064
921.10	0.058
921.53	0.061
921.96	0.064
922.38	0.062
922.81	0.065
923.24	0.067
923.66	0.064
924.09	0.063
924.52	0.064
924.94	0.063
925.37	0.067
925.80	0.066
926.22	0.072
926.65	0.071
927.08	0.067
927.50	0.067
927.93	0.073
928.36	0.068
928.78	0.071
929.21	0.076
929.64	0.079
930.06	0.077
930.49	0.074
930.92	0.077
931.34	0.080
931.77	0.076
932.20	0.076
932.62	0.083
933.05	0.082
933.47	0.086
933.90	0.089
934.33	0.082
934.75	0.082
935.18	0.085
935.61	0.091
936.03	0.087
936.46	0.089
936.88	0.092
937.31	0.098
937.73	0.095
938.16	0.096
938.59	0.101
939.01	0.099
939.44	0.100
939.86	0.103
940.29	0.105
940.71	0.102
941.14	0.106
941.57	0.107
941.99	0.113
942.42	0.103
942.84	0.111
943.27	0.104
943.69	0.122
944.12	0.119
944.54	0.122
944.97	0.122
945.39	0.127
945.82	0.132
946.24	0.130
946.67	0.130
947.09	0.143
947.52	0.133
947.94	0.140
948.37	0.132
948.79	0.144
949.22	0.146
949.64	0.148
950.07	0.149
950.49	0.144
950.92	0.157
951.34	0.158
951.77	0.164
952.19	0.166
952.62	0.169
953.04	0.173
953.47	0.168
953.89	0.167
954.32	0.180
954.74	0.182
955.17	0.183
955.59	0.188
956.01	0.191
956.44	0.192
956.86	0.194
957.29	0.200
957.71	0.198
958.14	0.198
958.56	0.210
958.98	0.207
959.41	0.209
959.83	0.207
960.26	0.217
960.68	0.213
961.10	0.218
961.53	0.219
961.95	0.214
962.38	0.223
962.80	0.219
963.22	0.215
963.65	0.216
964.07	0.218
964.50	0.223
964.92	0.225
965.34	0.222
965.77	0.228
966.19	0.224
966.61	0.218
967.04	0.219
967.46	0.230
967.88	0.227
968.31	0.237
968.73	0.235
969.15	0.233
969.58	0.225
970.00	0.232
970.42	0.226
970.85	0.232
971.27	0.229
971.69	0.230
972.12	0.227
972.54	0.234
972.96	0.229
973.39	0.225
973.81	0.234
974.23	0.232
974.65	0.241
975.08	0.238
975.50	0.233
975.92	0.240
976.35	0.239
976.77	0.238
977.19	0.234
977.61	0.239
978.04	0.236
978.46	0.237
978.88	0.236
979.30	0.236
979.73	0.228
980.15	0.232
980.57	0.235
980.99	0.234
981.42	0.230
981.84	0.234
982.26	0.234
982.68	0.233
983.11	0.236
983.53	0.233
983.95	0.237
984.37	0.228
984.79	0.228
985.22	0.236
985.64	0.226
986.06	0.224
986.48	0.224
986.90	0.220
987.33	0.229
987.75	0.227
988.17	0.232
988.59	0.225
989.01	0.226
989.43	0.222
989.86	0.221
990.28	0.228
990.70	0.221
991.12	0.221
991.54	0.220
991.96	0.223
992.39	0.222
992.81	0.223
993.23	0.216
993.65	0.214
994.07	0.217
994.49	0.218
994.91	0.213
995.34	0.213
995.76	0.217
996.18	0.208
996.60	0.217
997.02	0.217
997.44	0.207
997.86	0.210
998.28	0.202
998.70	0.216
999.12	0.204
999.55	0.212
999.97	0.205
1000.39	0.205
1000.81	0.209
1001.23	0.208
1001.65	0.203
1002.07	0.196
1002.49	0.207
1002.91	0.202
1003.33	0.203
1003.75	0.200
1004.17	0.199
1004.59	0.196
1005.01	0.205
1005.43	0.196
1005.85	0.201
1006.28	0.198
1006.70	0.193
1007.12	0.197
1007.54	0.193
1007.96	0.183
1008.38	0.188
1008.80	0.195
1009.22	0.190
1009.64	0.180
1010.06	0.193
1010.48	0.186
1010.90	0.185
1011.32	0.176
1011.74	0.174
1012.16	0.182
1012.58	0.174
1013.00	0.175
1013.42	0.186
1013.84	0.175
1014.26	0.171
1014.67	0.175
1015.09	0.170
1015.51	0.179
1015.93	0.173
1016.35	0.185
1016.77	0.167
1017.19	0.167
1017.61	0.160
1018.03	0.171
1018.45	0.169
1018.87	0.160
1019.29	0.162
1019.71	0.172
1020.13	0.159
1020.55	0.160
1020.97	0.165
1021.38	0.159
1021.80	0.159
1022.22	0.153
1022.64	0.156
1023.06	0.143
1023.48	0.160
1023.90	0.161
1024.32	0.160
1024.74	0.157
1025.15	0.154
1025.57	0.152
1025.99	0.159
1026.41	0.143
1026.83	0.139
1027.25	0.151
1027.67	0.149
1028.08	0.147
1028.50	0.150
1028.92	0.146
1029.34	0.142
1029.76	0.137
1030.18	0.133
1030.60	0.134
1031.01	0.123
1031.43	0.134
1031.85	0.127
1032.27	0.125
1032.69	0.119
1033.10	0.122
1033.52	0.127
1033.94	0.139
1034.36	0.139
1034.78	0.115
1035.19	0.114
1035.61	0.126
1036.03	0.117
1036.45	0.124
1036.87	0.124
1037.28	0.118
1037.70	0.120
1038.12	0.117
1038.54	0.130
1038.95	0.113
1039.37	0.140
1039.79	0.113
1040.21	0.108
1040.62	0.105
1041.04	0.120
1041.46	0.120
1041.88	0.105
1042.29	0.098
1042.71	0.115
1043.13	0.082
1043.55	0.093
1043.96	0.121
1044.38	0.106
1044.80	0.090
1045.21	0.088
1045.63	0.108
1046.05	0.097
1046.47	0.095
1046.88	0.105
1047.30	0.103
1047.72	0.113
1048.13	0.104
1048.55	0.106
1048.97	0.112
1049.38	0.072
1049.80	0.078
1050.22	0.088
1050.63	0.088
1051.05	0.080
1051.47	0.069
1051.88	0.095
1052.30	0.102
1052.72	0.102
1053.13	0.106
1053.55	0.117
1053.97	0.097
1054.38	0.075
1054.80	0.095
1055.21	0.101
1055.63	0.098
1056.05	0.118
1056.46	0.111
1056.88	0.123
1057.29	0.101
1057.71	0.121
1058.13	0.107
1058.54	0.089
1058.96	0.097
1059.37	0.125
1059.79	0.096
1060.21	0.076
1060.62	0.087
1061.04	0.133
1061.45	0.071
1061.87	0.098
1062.28	0.088
1062.70	0.103
1063.12	0.087
1063.53	0.135
1063.95	0.169
1064.36	0.087
1064.78	0.038
1065.19	0.154
1065.61	0.078
1066.02	0.053
1066.44	0.081
1066.85	0.142
1067.27	0.166
1067.68	0.087
1068.10	0.100
1068.51	0.174
1068.93	0.126
1069.35	0.104
1069.76	0.149
1070.17	0.076
1070.59	0.071
1071.00	0.099
1071.42	0.110
1071.83	0.104
1072.25	0.058
1072.66	0.142
1073.08	0.138
1073.49	0.064
1073.91	0.122
1074.32	0.243
1074.74	0.187
1075.15	0.095
1075.57	0.159
1075.98	0.258
1076.40	0.008
1076.81	0.006
1077.22	0.261
1077.64	0.046
1078.05	-0.065
1078.47	0.092
1078.88	0.161
1079.30	0.094
1079.71	0.242
1080.12	0.308
1080.54	0.124
1080.95	0.051
1081.37	0.102
1081.78	0.034
1082.19	0.263
1082.61	0.074
1083.02	-0.028
1083.44	0.233
1083.85	0.212
1084.26	-0.102
1084.68	0.157
1085.09	-0.059
1085.50	0.423
1085.92	0.602
1086.33	0.104
1086.74	0.350
1087.16	0.117
1087.57	0.135
1087.98	0.177
1088.40	0.207
1088.81	0.187
1089.22	0.145
1089.64	0.085
1090.05	0.043
1090.46	-0.102
1090.88	0.763
1091.29	0.289
1091.70	0.117
1092.12	0.528
1092.53	0.380
1092.94	0.076
1093.36	-0.285
1093.77	0.180
1094.18	0.191
1094.59	-0.032
1095.01	0.178
1095.42	0.507
1095.83	0.262
1096.25	0.299
1096.66	0.563
1097.07	0.230
1097.48	0.326
1097.90	-0.122
1098.31	0.406
1098.72	-0.063
1099.13	0.095
>>>>>End Processed Spectral Data<<<<<
