SpectraSuite Data File
++++++++++++++++++++++++++++++++++++
Date: Tue Jul 11 15:43:32 CEST 2017
User: IPCE
Dark Spectrum Present: Yes
Reference Spectrum Present: Yes
Number of Sampled Component Spectra: 1
Spectrometers: HR+C0708
Integration Time (usec): 1000 (HR+C0708)
Spectra Averaged: 10 (HR+C0708)
Boxcar Smoothing: 0 (HR+C0708)
Correct for Electrical Dark: No (HR+C0708)
Strobe/Lamp Enabled: No (HR+C0708)
Correct for Detector Non-linearity: No (HR+C0708)
Correct for Stray Light: No (HR+C0708)
Number of Pixels in Processed Spectrum: 2048
>>>>>Begin Processed Spectral Data<<<<<
188.76	0.141
189.23	0.431
189.70	-0.000
190.17	0.220
190.64	-0.000
191.12	0.136
191.59	0.366
192.06	1.067
192.53	0.346
193.01	-0.134
193.48	-0.000
193.95	0.366
194.42	0.086
194.90	0.140
195.37	0.099
195.84	0.242
196.31	0.416
196.78	0.130
197.26	0.289
197.73	0.192
198.20	0.054
198.67	0.084
199.14	0.040
199.62	0.287
200.09	0.418
200.56	0.386
201.03	0.358
201.50	0.275
201.97	0.288
202.45	0.600
202.92	0.546
203.39	0.325
203.86	0.544
204.33	0.398
204.80	0.299
205.28	0.383
205.75	0.399
206.22	0.438
206.69	0.361
207.16	0.290
207.63	0.431
208.11	0.438
208.58	0.268
209.05	0.437
209.52	0.569
209.99	0.341
210.46	0.351
210.93	0.424
211.41	0.371
211.88	0.311
212.35	0.345
212.82	0.257
213.29	0.432
213.76	0.363
214.23	0.406
214.70	0.384
215.18	0.379
215.65	0.449
216.12	0.412
216.59	0.381
217.06	0.535
217.53	0.316
218.00	0.394
218.47	0.462
218.94	0.265
219.41	0.492
219.89	0.465
220.36	0.485
220.83	0.562
221.30	0.459
221.77	0.477
222.24	0.480
222.71	0.634
223.18	0.562
223.65	0.474
224.12	0.554
224.59	0.622
225.06	0.685
225.54	0.581
226.01	0.678
226.48	0.722
226.95	0.629
227.42	0.801
227.89	0.800
228.36	0.897
228.83	0.981
229.30	0.824
229.77	1.062
230.24	1.144
230.71	1.174
231.18	1.083
231.65	1.273
232.12	1.460
232.59	1.299
233.06	1.484
233.53	1.421
234.00	1.503
234.47	1.598
234.94	1.693
235.41	1.684
235.88	1.736
236.35	1.699
236.82	1.779
237.29	1.742
237.76	1.898
238.23	1.883
238.70	1.929
239.17	1.907
239.64	1.993
240.11	2.134
240.58	1.897
241.05	2.109
241.52	2.080
241.99	2.078
242.46	1.981
242.93	2.106
243.40	2.108
243.87	2.503
244.34	2.165
244.81	2.154
245.28	2.169
245.75	2.407
246.22	2.237
246.69	2.197
247.16	2.310
247.63	2.197
248.10	2.272
248.57	2.212
249.04	2.236
249.51	2.267
249.98	2.151
250.45	2.417
250.92	2.269
251.39	2.252
251.85	2.232
252.32	2.254
252.79	2.003
253.26	1.981
253.73	1.982
254.20	1.851
254.67	1.801
255.14	1.751
255.61	1.693
256.08	1.668
256.55	1.598
257.02	1.575
257.49	1.542
257.95	1.505
258.42	1.480
258.89	1.443
259.36	1.424
259.83	1.391
260.30	1.361
260.77	1.336
261.24	1.320
261.71	1.282
262.17	1.273
262.64	1.247
263.11	1.229
263.58	1.218
264.05	1.199
264.52	1.174
264.99	1.160
265.46	1.146
265.92	1.132
266.39	1.119
266.86	1.101
267.33	1.090
267.80	1.081
268.27	1.065
268.74	1.057
269.20	1.045
269.67	1.033
270.14	1.024
270.61	1.011
271.08	0.998
271.55	0.995
272.01	0.980
272.48	0.976
272.95	0.967
273.42	0.960
273.89	0.949
274.36	0.942
274.82	0.939
275.29	0.930
275.76	0.921
276.23	0.918
276.70	0.916
277.16	0.910
277.63	0.903
278.10	0.900
278.57	0.900
279.04	0.895
279.50	0.892
279.97	0.889
280.44	0.881
280.91	0.877
281.38	0.877
281.84	0.865
282.31	0.873
282.78	0.872
283.25	0.859
283.72	0.863
284.18	0.862
284.65	0.865
285.12	0.860
285.59	0.854
286.05	0.859
286.52	0.861
286.99	0.858
287.46	0.855
287.92	0.851
288.39	0.857
288.86	0.856
289.33	0.854
289.79	0.849
290.26	0.847
290.73	0.848
291.20	0.843
291.66	0.843
292.13	0.835
292.60	0.832
293.07	0.825
293.53	0.828
294.00	0.816
294.47	0.811
294.93	0.805
295.40	0.797
295.87	0.790
296.34	0.782
296.80	0.771
297.27	0.767
297.74	0.758
298.20	0.750
298.67	0.741
299.14	0.736
299.60	0.726
300.07	0.714
300.54	0.706
301.01	0.700
301.47	0.692
301.94	0.677
302.41	0.670
302.87	0.662
303.34	0.652
303.81	0.649
304.27	0.638
304.74	0.635
305.21	0.625
305.67	0.616
306.14	0.612
306.61	0.602
307.07	0.600
307.54	0.592
308.01	0.585
308.47	0.582
308.94	0.570
309.40	0.570
309.87	0.568
310.34	0.562
310.80	0.558
311.27	0.549
311.74	0.553
312.20	0.546
312.67	0.541
313.13	0.537
313.60	0.533
314.07	0.535
314.53	0.531
315.00	0.529
315.47	0.523
315.93	0.519
316.40	0.523
316.86	0.516
317.33	0.517
317.80	0.508
318.26	0.508
318.73	0.506
319.19	0.502
319.66	0.500
320.13	0.497
320.59	0.497
321.06	0.490
321.52	0.492
321.99	0.493
322.45	0.490
322.92	0.482
323.39	0.481
323.85	0.482
324.32	0.478
324.78	0.472
325.25	0.470
325.71	0.467
326.18	0.464
326.64	0.466
327.11	0.460
327.58	0.460
328.04	0.459
328.51	0.458
328.97	0.455
329.44	0.452
329.90	0.446
330.37	0.442
330.83	0.445
331.30	0.438
331.76	0.433
332.23	0.433
332.69	0.430
333.16	0.429
333.62	0.424
334.09	0.423
334.56	0.418
335.02	0.417
335.49	0.409
335.95	0.409
336.42	0.406
336.88	0.403
337.35	0.402
337.81	0.401
338.28	0.397
338.74	0.399
339.20	0.397
339.67	0.397
340.13	0.393
340.60	0.395
341.06	0.387
341.53	0.389
341.99	0.385
342.46	0.385
342.92	0.385
343.39	0.386
343.85	0.381
344.32	0.382
344.78	0.377
345.25	0.378
345.71	0.377
346.17	0.376
346.64	0.375
347.10	0.373
347.57	0.367
348.03	0.368
348.50	0.364
348.96	0.357
349.43	0.364
349.89	0.358
350.35	0.358
350.82	0.350
351.28	0.349
351.75	0.343
352.21	0.344
352.67	0.331
353.14	0.333
353.60	0.325
354.07	0.319
354.53	0.318
355.00	0.311
355.46	0.303
355.92	0.299
356.39	0.295
356.85	0.282
357.31	0.282
357.78	0.277
358.24	0.266
358.71	0.259
359.17	0.250
359.63	0.238
360.10	0.233
360.56	0.221
361.03	0.214
361.49	0.202
361.95	0.193
362.42	0.180
362.88	0.173
363.34	0.162
363.81	0.154
364.27	0.145
364.73	0.136
365.20	0.129
365.66	0.122
366.12	0.112
366.59	0.108
367.05	0.102
367.51	0.098
367.98	0.093
368.44	0.093
368.90	0.088
369.37	0.086
369.83	0.081
370.29	0.080
370.76	0.080
371.22	0.079
371.68	0.078
372.15	0.075
372.61	0.075
373.07	0.074
373.54	0.075
374.00	0.072
374.46	0.074
374.92	0.071
375.39	0.070
375.85	0.071
376.31	0.070
376.78	0.070
377.24	0.068
377.70	0.069
378.16	0.069
378.63	0.066
379.09	0.065
379.55	0.069
380.01	0.067
380.48	0.068
380.94	0.068
381.40	0.065
381.87	0.064
382.33	0.065
382.79	0.063
383.25	0.064
383.72	0.066
384.18	0.064
384.64	0.063
385.10	0.063
385.56	0.062
386.03	0.062
386.49	0.062
386.95	0.061
387.41	0.061
387.88	0.061
388.34	0.063
388.80	0.061
389.26	0.061
389.72	0.059
390.19	0.059
390.65	0.060
391.11	0.061
391.57	0.062
392.04	0.060
392.50	0.057
392.96	0.059
393.42	0.060
393.88	0.061
394.34	0.060
394.81	0.060
395.27	0.056
395.73	0.056
396.19	0.060
396.65	0.060
397.12	0.057
397.58	0.055
398.04	0.057
398.50	0.058
398.96	0.057
399.42	0.055
399.89	0.058
400.35	0.055
400.81	0.057
401.27	0.057
401.73	0.056
402.19	0.055
402.65	0.054
403.12	0.053
403.58	0.054
404.04	0.054
404.50	0.053
404.96	0.052
405.42	0.053
405.88	0.051
406.34	0.052
406.81	0.053
407.27	0.052
407.73	0.051
408.19	0.047
408.65	0.048
409.11	0.051
409.57	0.053
410.03	0.051
410.49	0.051
410.96	0.048
411.42	0.049
411.88	0.047
412.34	0.047
412.80	0.049
413.26	0.050
413.72	0.048
414.18	0.050
414.64	0.046
415.10	0.047
415.56	0.048
416.02	0.043
416.48	0.046
416.95	0.046
417.41	0.045
417.87	0.045
418.33	0.049
418.79	0.047
419.25	0.051
419.71	0.045
420.17	0.047
420.63	0.044
421.09	0.046
421.55	0.047
422.01	0.041
422.47	0.044
422.93	0.045
423.39	0.047
423.85	0.046
424.31	0.044
424.77	0.046
425.23	0.045
425.69	0.045
426.15	0.046
426.61	0.047
427.07	0.045
427.53	0.045
427.99	0.046
428.45	0.046
428.91	0.042
429.37	0.046
429.83	0.047
430.29	0.046
430.75	0.044
431.21	0.044
431.67	0.048
432.13	0.042
432.59	0.045
433.05	0.041
433.51	0.044
433.97	0.045
434.43	0.044
434.89	0.043
435.35	0.045
435.81	0.041
436.27	0.040
436.73	0.042
437.19	0.043
437.65	0.040
438.11	0.044
438.57	0.045
439.03	0.041
439.48	0.042
439.94	0.042
440.40	0.041
440.86	0.041
441.32	0.040
441.78	0.044
442.24	0.040
442.70	0.042
443.16	0.040
443.62	0.038
444.08	0.045
444.54	0.043
444.99	0.043
445.45	0.042
445.91	0.038
446.37	0.041
446.83	0.042
447.29	0.040
447.75	0.038
448.21	0.041
448.67	0.043
449.12	0.039
449.58	0.037
450.04	0.038
450.50	0.037
450.96	0.038
451.42	0.041
451.88	0.043
452.34	0.040
452.79	0.039
453.25	0.041
453.71	0.040
454.17	0.038
454.63	0.040
455.09	0.040
455.55	0.039
456.00	0.037
456.46	0.039
456.92	0.041
457.38	0.043
457.84	0.041
458.30	0.041
458.75	0.039
459.21	0.039
459.67	0.040
460.13	0.042
460.59	0.043
461.04	0.036
461.50	0.039
461.96	0.041
462.42	0.041
462.88	0.039
463.33	0.041
463.79	0.042
464.25	0.040
464.71	0.041
465.17	0.041
465.62	0.042
466.08	0.038
466.54	0.041
467.00	0.040
467.46	0.040
467.91	0.042
468.37	0.041
468.83	0.040
469.29	0.040
469.74	0.042
470.20	0.040
470.66	0.040
471.12	0.042
471.57	0.043
472.03	0.040
472.49	0.042
472.95	0.042
473.40	0.043
473.86	0.040
474.32	0.041
474.78	0.043
475.23	0.040
475.69	0.040
476.15	0.044
476.60	0.042
477.06	0.041
477.52	0.042
477.98	0.044
478.43	0.041
478.89	0.042
479.35	0.042
479.80	0.043
480.26	0.042
480.72	0.044
481.18	0.042
481.63	0.042
482.09	0.042
482.55	0.042
483.00	0.044
483.46	0.043
483.92	0.043
484.37	0.042
484.83	0.042
485.29	0.042
485.74	0.042
486.20	0.043
486.66	0.043
487.11	0.043
487.57	0.042
488.03	0.043
488.48	0.042
488.94	0.042
489.40	0.043
489.85	0.042
490.31	0.042
490.77	0.044
491.22	0.042
491.68	0.042
492.13	0.042
492.59	0.041
493.05	0.043
493.50	0.043
493.96	0.042
494.42	0.044
494.87	0.043
495.33	0.041
495.78	0.040
496.24	0.042
496.70	0.043
497.15	0.042
497.61	0.042
498.06	0.044
498.52	0.043
498.98	0.042
499.43	0.042
499.89	0.041
500.34	0.043
500.80	0.043
501.25	0.043
501.71	0.040
502.17	0.043
502.62	0.041
503.08	0.043
503.53	0.042
503.99	0.043
504.44	0.042
504.90	0.041
505.36	0.042
505.81	0.039
506.27	0.040
506.72	0.041
507.18	0.042
507.63	0.040
508.09	0.043
508.54	0.042
509.00	0.042
509.45	0.042
509.91	0.043
510.36	0.042
510.82	0.044
511.27	0.040
511.73	0.042
512.19	0.040
512.64	0.044
513.10	0.042
513.55	0.042
514.01	0.041
514.46	0.041
514.92	0.041
515.37	0.040
515.83	0.039
516.28	0.041
516.73	0.042
517.19	0.041
517.64	0.039
518.10	0.044
518.55	0.044
519.01	0.040
519.46	0.042
519.92	0.039
520.37	0.041
520.83	0.044
521.28	0.041
521.74	0.040
522.19	0.041
522.65	0.041
523.10	0.042
523.55	0.039
524.01	0.042
524.46	0.042
524.92	0.044
525.37	0.042
525.83	0.043
526.28	0.040
526.73	0.042
527.19	0.042
527.64	0.046
528.10	0.041
528.55	0.043
529.01	0.042
529.46	0.045
529.91	0.042
530.37	0.043
530.82	0.043
531.28	0.046
531.73	0.044
532.18	0.044
532.64	0.042
533.09	0.044
533.54	0.044
534.00	0.042
534.45	0.045
534.91	0.045
535.36	0.045
535.81	0.045
536.27	0.046
536.72	0.043
537.17	0.046
537.63	0.046
538.08	0.048
538.54	0.047
538.99	0.045
539.44	0.050
539.90	0.048
540.35	0.047
540.80	0.047
541.26	0.048
541.71	0.048
542.16	0.048
542.62	0.049
543.07	0.050
543.52	0.049
543.98	0.050
544.43	0.049
544.88	0.051
545.34	0.051
545.79	0.052
546.24	0.052
546.69	0.051
547.15	0.050
547.60	0.054
548.05	0.053
548.51	0.052
548.96	0.054
549.41	0.055
549.86	0.057
550.32	0.057
550.77	0.055
551.22	0.058
551.68	0.057
552.13	0.057
552.58	0.060
553.03	0.059
553.49	0.059
553.94	0.058
554.39	0.061
554.84	0.062
555.30	0.062
555.75	0.062
556.20	0.063
556.65	0.063
557.11	0.064
557.56	0.063
558.01	0.063
558.46	0.066
558.92	0.067
559.37	0.066
559.82	0.069
560.27	0.069
560.72	0.068
561.18	0.067
561.63	0.070
562.08	0.072
562.53	0.069
562.99	0.071
563.44	0.073
563.89	0.073
564.34	0.074
564.79	0.073
565.25	0.075
565.70	0.075
566.15	0.078
566.60	0.077
567.05	0.078
567.50	0.081
567.96	0.080
568.41	0.081
568.86	0.080
569.31	0.082
569.76	0.082
570.21	0.082
570.67	0.083
571.12	0.085
571.57	0.086
572.02	0.089
572.47	0.088
572.92	0.088
573.37	0.087
573.83	0.093
574.28	0.092
574.73	0.091
575.18	0.091
575.63	0.095
576.08	0.096
576.53	0.094
576.98	0.096
577.44	0.098
577.89	0.098
578.34	0.099
578.79	0.103
579.24	0.101
579.69	0.104
580.14	0.105
580.59	0.106
581.04	0.107
581.49	0.109
581.95	0.112
582.40	0.110
582.85	0.110
583.30	0.114
583.75	0.116
584.20	0.117
584.65	0.115
585.10	0.119
585.55	0.120
586.00	0.123
586.45	0.125
586.90	0.126
587.35	0.126
587.80	0.128
588.25	0.130
588.71	0.130
589.16	0.134
589.61	0.137
590.06	0.138
590.51	0.141
590.96	0.144
591.41	0.144
591.86	0.147
592.31	0.148
592.76	0.148
593.21	0.152
593.66	0.155
594.11	0.154
594.56	0.155
595.01	0.159
595.46	0.162
595.91	0.162
596.36	0.165
596.81	0.169
597.26	0.169
597.71	0.171
598.16	0.173
598.61	0.175
599.06	0.177
599.51	0.178
599.96	0.182
600.41	0.182
600.86	0.186
601.31	0.189
601.76	0.190
602.21	0.191
602.65	0.193
603.10	0.196
603.55	0.196
604.00	0.201
604.45	0.202
604.90	0.205
605.35	0.208
605.80	0.207
606.25	0.207
606.70	0.210
607.15	0.212
607.60	0.212
608.05	0.213
608.50	0.216
608.95	0.217
609.39	0.221
609.84	0.221
610.29	0.222
610.74	0.224
611.19	0.224
611.64	0.225
612.09	0.227
612.54	0.227
612.99	0.229
613.44	0.229
613.88	0.232
614.33	0.231
614.78	0.233
615.23	0.235
615.68	0.233
616.13	0.235
616.58	0.236
617.03	0.235
617.47	0.237
617.92	0.239
618.37	0.237
618.82	0.239
619.27	0.239
619.72	0.239
620.17	0.239
620.61	0.240
621.06	0.243
621.51	0.243
621.96	0.242
622.41	0.247
622.86	0.243
623.30	0.246
623.75	0.244
624.20	0.248
624.65	0.250
625.10	0.247
625.54	0.251
625.99	0.251
626.44	0.252
626.89	0.252
627.34	0.254
627.78	0.254
628.23	0.257
628.68	0.257
629.13	0.258
629.58	0.258
630.02	0.262
630.47	0.265
630.92	0.265
631.37	0.265
631.81	0.269
632.26	0.270
632.71	0.274
633.16	0.273
633.61	0.274
634.05	0.278
634.50	0.279
634.95	0.282
635.40	0.282
635.84	0.287
636.29	0.289
636.74	0.290
637.18	0.292
637.63	0.294
638.08	0.299
638.53	0.299
638.97	0.304
639.42	0.306
639.87	0.310
640.32	0.314
640.76	0.318
641.21	0.319
641.66	0.322
642.10	0.324
642.55	0.329
643.00	0.331
643.44	0.333
643.89	0.338
644.34	0.343
644.79	0.344
645.23	0.347
645.68	0.353
646.13	0.356
646.57	0.357
647.02	0.361
647.47	0.363
647.91	0.367
648.36	0.371
648.81	0.376
649.25	0.377
649.70	0.381
650.15	0.385
650.59	0.386
651.04	0.393
651.48	0.391
651.93	0.396
652.38	0.401
652.82	0.401
653.27	0.405
653.72	0.408
654.16	0.410
654.61	0.414
655.06	0.417
655.50	0.419
655.95	0.422
656.39	0.424
656.84	0.425
657.29	0.428
657.73	0.430
658.18	0.433
658.62	0.433
659.07	0.435
659.52	0.438
659.96	0.439
660.41	0.441
660.85	0.438
661.30	0.445
661.74	0.448
662.19	0.450
662.64	0.444
663.08	0.446
663.53	0.448
663.97	0.450
664.42	0.448
664.86	0.449
665.31	0.451
665.75	0.447
666.20	0.447
666.65	0.447
667.09	0.443
667.54	0.443
667.98	0.444
668.43	0.444
668.87	0.437
669.32	0.434
669.76	0.431
670.21	0.430
670.65	0.425
671.10	0.421
671.54	0.414
671.99	0.412
672.43	0.404
672.88	0.401
673.32	0.395
673.77	0.384
674.21	0.383
674.66	0.377
675.10	0.370
675.55	0.360
675.99	0.355
676.44	0.349
676.88	0.338
677.33	0.329
677.77	0.321
678.22	0.313
678.66	0.307
679.11	0.297
679.55	0.288
679.99	0.281
680.44	0.271
680.88	0.265
681.33	0.256
681.77	0.249
682.22	0.238
682.66	0.231
683.11	0.224
683.55	0.217
683.99	0.210
684.44	0.200
684.88	0.193
685.33	0.184
685.77	0.179
686.21	0.176
686.66	0.164
687.10	0.160
687.55	0.153
687.99	0.149
688.44	0.141
688.88	0.136
689.32	0.132
689.77	0.125
690.21	0.118
690.65	0.116
691.10	0.109
691.54	0.104
691.99	0.101
692.43	0.095
692.87	0.092
693.32	0.089
693.76	0.087
694.20	0.083
694.65	0.081
695.09	0.077
695.53	0.073
695.98	0.073
696.42	0.067
696.86	0.066
697.31	0.065
697.75	0.062
698.19	0.059
698.64	0.057
699.08	0.056
699.52	0.052
699.97	0.052
700.41	0.051
700.85	0.047
701.30	0.047
701.74	0.044
702.18	0.045
702.63	0.042
703.07	0.042
703.51	0.040
703.96	0.039
704.40	0.039
704.84	0.037
705.28	0.036
705.73	0.035
706.17	0.033
706.61	0.033
707.06	0.033
707.50	0.033
707.94	0.029
708.38	0.029
708.83	0.032
709.27	0.028
709.71	0.031
710.15	0.027
710.60	0.027
711.04	0.026
711.48	0.024
711.92	0.029
712.37	0.026
712.81	0.029
713.25	0.026
713.69	0.026
714.13	0.022
714.58	0.022
715.02	0.025
715.46	0.024
715.90	0.022
716.35	0.024
716.79	0.023
717.23	0.024
717.67	0.022
718.11	0.021
718.56	0.022
719.00	0.021
719.44	0.023
719.88	0.025
720.32	0.023
720.76	0.021
721.21	0.025
721.65	0.024
722.09	0.023
722.53	0.023
722.97	0.024
723.41	0.025
723.86	0.021
724.30	0.022
724.74	0.022
725.18	0.024
725.62	0.023
726.06	0.025
726.50	0.022
726.95	0.021
727.39	0.024
727.83	0.022
728.27	0.021
728.71	0.022
729.15	0.023
729.59	0.022
730.03	0.025
730.48	0.022
730.92	0.023
731.36	0.024
731.80	0.025
732.24	0.025
732.68	0.026
733.12	0.025
733.56	0.023
734.00	0.025
734.44	0.027
734.89	0.024
735.33	0.026
735.77	0.026
736.21	0.027
736.65	0.028
737.09	0.026
737.53	0.025
737.97	0.027
738.41	0.027
738.85	0.025
739.29	0.024
739.73	0.027
740.17	0.026
740.61	0.029
741.05	0.027
741.49	0.026
741.93	0.029
742.37	0.025
742.81	0.026
743.26	0.029
743.70	0.027
744.14	0.026
744.58	0.025
745.02	0.028
745.46	0.024
745.90	0.025
746.34	0.026
746.78	0.029
747.22	0.028
747.66	0.025
748.10	0.028
748.54	0.025
748.98	0.025
749.42	0.027
749.86	0.026
750.29	0.028
750.73	0.026
751.17	0.023
751.61	0.026
752.05	0.027
752.49	0.024
752.93	0.026
753.37	0.027
753.81	0.026
754.25	0.026
754.69	0.024
755.13	0.024
755.57	0.023
756.01	0.024
756.45	0.026
756.89	0.027
757.33	0.027
757.77	0.025
758.21	0.026
758.64	0.026
759.08	0.027
759.52	0.025
759.96	0.027
760.40	0.025
760.84	0.025
761.28	0.027
761.72	0.026
762.16	0.025
762.60	0.026
763.03	0.027
763.47	0.025
763.91	0.022
764.35	0.025
764.79	0.029
765.23	0.025
765.67	0.024
766.11	0.027
766.54	0.026
766.98	0.026
767.42	0.024
767.86	0.026
768.30	0.027
768.74	0.028
769.17	0.027
769.61	0.028
770.05	0.023
770.49	0.025
770.93	0.028
771.37	0.026
771.80	0.026
772.24	0.025
772.68	0.024
773.12	0.024
773.56	0.026
774.00	0.026
774.43	0.026
774.87	0.024
775.31	0.028
775.75	0.027
776.19	0.027
776.62	0.028
777.06	0.024
777.50	0.026
777.94	0.028
778.37	0.027
778.81	0.024
779.25	0.029
779.69	0.023
780.13	0.024
780.56	0.026
781.00	0.029
781.44	0.028
781.88	0.027
782.31	0.029
782.75	0.028
783.19	0.028
783.63	0.025
784.06	0.022
784.50	0.027
784.94	0.027
785.37	0.027
785.81	0.028
786.25	0.024
786.69	0.023
787.12	0.025
787.56	0.025
788.00	0.020
788.43	0.022
788.87	0.023
789.31	0.024
789.75	0.027
790.18	0.025
790.62	0.026
791.06	0.028
791.49	0.027
791.93	0.025
792.37	0.023
792.80	0.026
793.24	0.028
793.68	0.024
794.11	0.032
794.55	0.024
794.99	0.025
795.42	0.023
795.86	0.022
796.30	0.025
796.73	0.025
797.17	0.028
797.61	0.023
798.04	0.023
798.48	0.023
798.91	0.026
799.35	0.027
799.79	0.024
800.22	0.025
800.66	0.022
801.10	0.028
801.53	0.024
801.97	0.023
802.40	0.026
802.84	0.026
803.28	0.020
803.71	0.022
804.15	0.028
804.58	0.023
805.02	0.021
805.46	0.025
805.89	0.025
806.33	0.023
806.76	0.025
807.20	0.027
807.63	0.027
808.07	0.026
808.51	0.023
808.94	0.028
809.38	0.026
809.81	0.024
810.25	0.025
810.68	0.026
811.12	0.026
811.55	0.023
811.99	0.028
812.42	0.024
812.86	0.024
813.29	0.024
813.73	0.025
814.17	0.022
814.60	0.023
815.04	0.026
815.47	0.024
815.91	0.027
816.34	0.027
816.78	0.025
817.21	0.022
817.65	0.024
818.08	0.028
818.52	0.022
818.95	0.026
819.39	0.027
819.82	0.028
820.25	0.030
820.69	0.025
821.12	0.028
821.56	0.025
821.99	0.022
822.43	0.030
822.86	0.026
823.30	0.026
823.73	0.021
824.17	0.031
824.60	0.028
825.04	0.027
825.47	0.025
825.90	0.024
826.34	0.024
826.77	0.028
827.21	0.026
827.64	0.025
828.08	0.029
828.51	0.030
828.94	0.027
829.38	0.031
829.81	0.028
830.25	0.025
830.68	0.030
831.11	0.035
831.55	0.032
831.98	0.034
832.42	0.035
832.85	0.029
833.28	0.032
833.72	0.034
834.15	0.031
834.58	0.032
835.02	0.030
835.45	0.030
835.88	0.033
836.32	0.029
836.75	0.032
837.19	0.031
837.62	0.033
838.05	0.037
838.49	0.034
838.92	0.027
839.35	0.032
839.79	0.035
840.22	0.032
840.65	0.036
841.09	0.031
841.52	0.032
841.95	0.038
842.39	0.034
842.82	0.030
843.25	0.036
843.68	0.032
844.12	0.034
844.55	0.034
844.98	0.031
845.42	0.032
845.85	0.035
846.28	0.038
846.71	0.038
847.15	0.038
847.58	0.039
848.01	0.035
848.45	0.036
848.88	0.035
849.31	0.038
849.74	0.036
850.18	0.036
850.61	0.033
851.04	0.034
851.47	0.040
851.91	0.038
852.34	0.037
852.77	0.038
853.20	0.039
853.64	0.033
854.07	0.038
854.50	0.037
854.93	0.038
855.36	0.039
855.80	0.032
856.23	0.044
856.66	0.036
857.09	0.035
857.52	0.042
857.96	0.039
858.39	0.036
858.82	0.036
859.25	0.041
859.68	0.039
860.12	0.039
860.55	0.033
860.98	0.035
861.41	0.034
861.84	0.039
862.27	0.039
862.71	0.046
863.14	0.039
863.57	0.045
864.00	0.042
864.43	0.032
864.86	0.032
865.30	0.035
865.73	0.041
866.16	0.041
866.59	0.042
867.02	0.045
867.45	0.041
867.88	0.036
868.31	0.037
868.75	0.040
869.18	0.041
869.61	0.041
870.04	0.040
870.47	0.037
870.90	0.039
871.33	0.035
871.76	0.042
872.19	0.038
872.62	0.038
873.06	0.041
873.49	0.045
873.92	0.045
874.35	0.039
874.78	0.042
875.21	0.041
875.64	0.048
876.07	0.040
876.50	0.047
876.93	0.037
877.36	0.049
877.79	0.049
878.22	0.042
878.65	0.050
879.08	0.045
879.51	0.046
879.94	0.041
880.37	0.045
880.80	0.042
881.23	0.043
881.67	0.043
882.10	0.038
882.53	0.040
882.96	0.040
883.39	0.044
883.82	0.043
884.25	0.046
884.68	0.050
885.11	0.046
885.54	0.051
885.97	0.048
886.39	0.049
886.82	0.045
887.25	0.050
887.68	0.050
888.11	0.048
888.54	0.051
888.97	0.045
889.40	0.047
889.83	0.050
890.26	0.050
890.69	0.047
891.12	0.046
891.55	0.053
891.98	0.049
892.41	0.047
892.84	0.055
893.27	0.048
893.70	0.050
894.13	0.053
894.56	0.053
894.98	0.054
895.41	0.047
895.84	0.054
896.27	0.051
896.70	0.052
897.13	0.053
897.56	0.059
897.99	0.055
898.42	0.056
898.85	0.059
899.27	0.055
899.70	0.054
900.13	0.057
900.56	0.057
900.99	0.056
901.42	0.054
901.85	0.058
902.28	0.056
902.70	0.061
903.13	0.052
903.56	0.054
903.99	0.055
904.42	0.058
904.85	0.054
905.27	0.055
905.70	0.058
906.13	0.057
906.56	0.061
906.99	0.052
907.42	0.053
907.84	0.051
908.27	0.059
908.70	0.054
909.13	0.057
909.56	0.054
909.98	0.054
910.41	0.055
910.84	0.054
911.27	0.051
911.70	0.053
912.12	0.057
912.55	0.056
912.98	0.054
913.41	0.056
913.84	0.053
914.26	0.052
914.69	0.057
915.12	0.057
915.55	0.059
915.97	0.055
916.40	0.056
916.83	0.053
917.26	0.056
917.68	0.056
918.11	0.057
918.54	0.053
918.97	0.055
919.39	0.061
919.82	0.057
920.25	0.058
920.67	0.057
921.10	0.056
921.53	0.057
921.96	0.056
922.38	0.057
922.81	0.062
923.24	0.062
923.66	0.058
924.09	0.061
924.52	0.061
924.94	0.068
925.37	0.067
925.80	0.067
926.22	0.064
926.65	0.068
927.08	0.067
927.50	0.069
927.93	0.070
928.36	0.070
928.78	0.069
929.21	0.071
929.64	0.077
930.06	0.072
930.49	0.072
930.92	0.072
931.34	0.076
931.77	0.074
932.20	0.078
932.62	0.078
933.05	0.079
933.47	0.081
933.90	0.085
934.33	0.079
934.75	0.084
935.18	0.085
935.61	0.084
936.03	0.088
936.46	0.089
936.88	0.090
937.31	0.093
937.73	0.098
938.16	0.088
938.59	0.099
939.01	0.099
939.44	0.099
939.86	0.097
940.29	0.105
940.71	0.101
941.14	0.105
941.57	0.108
941.99	0.110
942.42	0.112
942.84	0.109
943.27	0.104
943.69	0.112
944.12	0.128
944.54	0.122
944.97	0.121
945.39	0.121
945.82	0.130
946.24	0.135
946.67	0.131
947.09	0.134
947.52	0.138
947.94	0.140
948.37	0.134
948.79	0.139
949.22	0.148
949.64	0.142
950.07	0.154
950.49	0.152
950.92	0.148
951.34	0.159
951.77	0.159
952.19	0.163
952.62	0.168
953.04	0.166
953.47	0.167
953.89	0.169
954.32	0.177
954.74	0.177
955.17	0.177
955.59	0.185
956.01	0.186
956.44	0.192
956.86	0.196
957.29	0.196
957.71	0.198
958.14	0.199
958.56	0.206
958.98	0.202
959.41	0.205
959.83	0.212
960.26	0.210
960.68	0.205
961.10	0.217
961.53	0.217
961.95	0.219
962.38	0.218
962.80	0.209
963.22	0.214
963.65	0.218
964.07	0.215
964.50	0.220
964.92	0.223
965.34	0.211
965.77	0.227
966.19	0.229
966.61	0.223
967.04	0.214
967.46	0.221
967.88	0.222
968.31	0.226
968.73	0.230
969.15	0.223
969.58	0.226
970.00	0.223
970.42	0.225
970.85	0.230
971.27	0.223
971.69	0.233
972.12	0.231
972.54	0.234
972.96	0.227
973.39	0.230
973.81	0.235
974.23	0.232
974.65	0.225
975.08	0.225
975.50	0.225
975.92	0.232
976.35	0.227
976.77	0.236
977.19	0.230
977.61	0.228
978.04	0.244
978.46	0.233
978.88	0.232
979.30	0.230
979.73	0.234
980.15	0.233
980.57	0.230
980.99	0.233
981.42	0.231
981.84	0.236
982.26	0.236
982.68	0.225
983.11	0.230
983.53	0.227
983.95	0.229
984.37	0.225
984.79	0.237
985.22	0.231
985.64	0.224
986.06	0.226
986.48	0.221
986.90	0.212
987.33	0.234
987.75	0.223
988.17	0.224
988.59	0.222
989.01	0.220
989.43	0.223
989.86	0.216
990.28	0.225
990.70	0.220
991.12	0.221
991.54	0.216
991.96	0.223
992.39	0.227
992.81	0.214
993.23	0.219
993.65	0.212
994.07	0.215
994.49	0.215
994.91	0.215
995.34	0.207
995.76	0.212
996.18	0.210
996.60	0.216
997.02	0.217
997.44	0.202
997.86	0.209
998.28	0.207
998.70	0.211
999.12	0.207
999.55	0.215
999.97	0.211
1000.39	0.201
1000.81	0.206
1001.23	0.205
1001.65	0.208
1002.07	0.201
1002.49	0.201
1002.91	0.197
1003.33	0.201
1003.75	0.199
1004.17	0.197
1004.59	0.197
1005.01	0.201
1005.43	0.198
1005.85	0.195
1006.28	0.200
1006.70	0.200
1007.12	0.197
1007.54	0.187
1007.96	0.184
1008.38	0.195
1008.80	0.190
1009.22	0.190
1009.64	0.185
1010.06	0.192
1010.48	0.177
1010.90	0.185
1011.32	0.170
1011.74	0.178
1012.16	0.184
1012.58	0.169
1013.00	0.173
1013.42	0.177
1013.84	0.173
1014.26	0.164
1014.67	0.180
1015.09	0.170
1015.51	0.173
1015.93	0.168
1016.35	0.168
1016.77	0.178
1017.19	0.175
1017.61	0.166
1018.03	0.186
1018.45	0.175
1018.87	0.158
1019.29	0.164
1019.71	0.158
1020.13	0.155
1020.55	0.157
1020.97	0.145
1021.38	0.154
1021.80	0.153
1022.22	0.150
1022.64	0.138
1023.06	0.137
1023.48	0.139
1023.90	0.150
1024.32	0.161
1024.74	0.142
1025.15	0.154
1025.57	0.149
1025.99	0.155
1026.41	0.138
1026.83	0.145
1027.25	0.146
1027.67	0.144
1028.08	0.150
1028.50	0.144
1028.92	0.155
1029.34	0.136
1029.76	0.151
1030.18	0.138
1030.60	0.139
1031.01	0.140
1031.43	0.136
1031.85	0.138
1032.27	0.133
1032.69	0.115
1033.10	0.126
1033.52	0.133
1033.94	0.128
1034.36	0.152
1034.78	0.127
1035.19	0.119
1035.61	0.127
1036.03	0.130
1036.45	0.126
1036.87	0.121
1037.28	0.123
1037.70	0.110
1038.12	0.127
1038.54	0.115
1038.95	0.119
1039.37	0.125
1039.79	0.110
1040.21	0.115
1040.62	0.108
1041.04	0.102
1041.46	0.093
1041.88	0.118
1042.29	0.110
1042.71	0.119
1043.13	0.067
1043.55	0.109
1043.96	0.124
1044.38	0.103
1044.80	0.096
1045.21	0.111
1045.63	0.104
1046.05	0.087
1046.47	0.111
1046.88	0.108
1047.30	0.100
1047.72	0.097
1048.13	0.103
1048.55	0.086
1048.97	0.110
1049.38	0.091
1049.80	0.096
1050.22	0.091
1050.63	0.093
1051.05	0.107
1051.47	0.083
1051.88	0.098
1052.30	0.070
1052.72	0.119
1053.13	0.123
1053.55	0.110
1053.97	0.127
1054.38	0.083
1054.80	0.110
1055.21	0.074
1055.63	0.087
1056.05	0.100
1056.46	0.133
1056.88	0.111
1057.29	0.100
1057.71	0.111
1058.13	0.088
1058.54	0.080
1058.96	0.096
1059.37	0.125
1059.79	0.062
1060.21	0.088
1060.62	0.082
1061.04	0.113
1061.45	0.080
1061.87	0.129
1062.28	0.111
1062.70	0.126
1063.12	0.132
1063.53	0.126
1063.95	0.102
1064.36	0.065
1064.78	0.090
1065.19	0.120
1065.61	0.100
1066.02	0.117
1066.44	0.074
1066.85	0.109
1067.27	0.153
1067.68	0.147
1068.10	0.175
1068.51	0.133
1068.93	0.064
1069.35	0.118
1069.76	0.132
1070.17	0.105
1070.59	0.123
1071.00	0.117
1071.42	0.147
1071.83	0.166
1072.25	0.219
1072.66	0.194
1073.08	0.108
1073.49	0.101
1073.91	0.212
1074.32	0.271
1074.74	0.150
1075.15	0.124
1075.57	0.259
1075.98	0.286
1076.40	-0.082
1076.81	0.229
1077.22	0.237
1077.64	0.140
1078.05	0.141
1078.47	0.036
1078.88	0.237
1079.30	0.096
1079.71	0.288
1080.12	0.123
1080.54	0.162
1080.95	0.101
1081.37	0.412
1081.78	0.206
1082.19	0.006
1082.61	0.013
1083.02	0.016
1083.44	0.260
1083.85	0.097
1084.26	0.244
1084.68	0.181
1085.09	0.127
1085.50	0.337
1085.92	0.935
1086.33	0.063
1086.74	0.350
1087.16	0.202
1087.57	0.193
1087.98	0.194
1088.40	0.187
1088.81	0.838
1089.22	0.168
1089.64	0.043
1090.05	0.357
1090.46	0.593
1090.88	0.082
1091.29	0.121
1091.70	0.278
1092.12	0.403
1092.53	0.332
1092.94	0.203
1093.36	-0.005
1093.77	0.399
1094.18	0.506
1094.59	0.181
1095.01	0.269
1095.42	0.374
1095.83	0.512
1096.25	0.613
1096.66	0.453
1097.07	0.142
1097.48	0.240
1097.90	0.388
1098.31	0.375
1098.72	-0.337
1099.13	0.045
>>>>>End Processed Spectral Data<<<<<
