SpectraSuite Data File
++++++++++++++++++++++++++++++++++++
Date: Tue Jul 11 15:28:02 CEST 2017
User: IPCE
Dark Spectrum Present: Yes
Reference Spectrum Present: Yes
Number of Sampled Component Spectra: 1
Spectrometers: HR+C0708
Integration Time (usec): 1000 (HR+C0708)
Spectra Averaged: 10 (HR+C0708)
Boxcar Smoothing: 0 (HR+C0708)
Correct for Electrical Dark: No (HR+C0708)
Strobe/Lamp Enabled: No (HR+C0708)
Correct for Detector Non-linearity: No (HR+C0708)
Correct for Stray Light: No (HR+C0708)
Number of Pixels in Processed Spectrum: 2048
>>>>>Begin Processed Spectral Data<<<<<
188.76	0.392
189.23	0.076
189.70	-0.161
190.17	0.019
190.64	0.602
191.12	0.492
191.59	0.456
192.06	-0.000
192.53	0.304
193.01	-0.000
193.48	-0.000
193.95	0.554
194.42	0.461
194.90	0.150
195.37	0.193
195.84	0.222
196.31	0.522
196.78	0.089
197.26	1.560
197.73	0.291
198.20	0.116
198.67	0.091
199.14	0.081
199.62	2.079
200.09	0.144
200.56	0.376
201.03	0.392
201.50	0.733
201.97	0.308
202.45	0.746
202.92	0.491
203.39	0.413
203.86	0.456
204.33	0.545
204.80	0.663
205.28	0.631
205.75	0.694
206.22	0.526
206.69	0.697
207.16	0.369
207.63	0.473
208.11	0.476
208.58	0.423
209.05	0.585
209.52	0.649
209.99	0.734
210.46	0.327
210.93	0.451
211.41	0.497
211.88	0.408
212.35	0.470
212.82	0.390
213.29	0.382
213.76	0.439
214.23	0.792
214.70	0.462
215.18	0.443
215.65	0.363
216.12	0.661
216.59	0.643
217.06	0.502
217.53	0.384
218.00	0.449
218.47	0.619
218.94	0.501
219.41	0.653
219.89	0.752
220.36	0.634
220.83	0.406
221.30	0.741
221.77	2.662
222.24	0.728
222.71	0.760
223.18	0.545
223.65	0.562
224.12	0.626
224.59	0.582
225.06	0.845
225.54	0.776
226.01	0.793
226.48	0.866
226.95	0.738
227.42	0.993
227.89	0.945
228.36	0.976
228.83	1.086
229.30	0.971
229.77	1.102
230.24	1.458
230.71	1.224
231.18	1.336
231.65	1.791
232.12	1.784
232.59	1.434
233.06	1.768
233.53	1.823
234.00	1.696
234.47	1.664
234.94	1.926
235.41	1.924
235.88	1.993
236.35	1.671
236.82	1.926
237.29	2.175
237.76	1.817
238.23	2.261
238.70	2.123
239.17	2.081
239.64	2.136
240.11	2.109
240.58	2.109
241.05	2.406
241.52	2.184
241.99	2.193
242.46	2.087
242.93	2.180
243.40	2.297
243.87	2.398
244.34	2.365
244.81	2.267
245.28	2.249
245.75	2.347
246.22	2.441
246.69	2.504
247.16	2.539
247.63	2.477
248.10	2.322
248.57	2.414
249.04	2.457
249.51	2.407
249.98	2.404
250.45	2.587
250.92	2.573
251.39	2.523
251.85	2.475
252.32	2.553
252.79	2.523
253.26	2.469
253.73	2.636
254.20	2.353
254.67	2.446
255.14	2.444
255.61	2.576
256.08	2.754
256.55	2.523
257.02	2.438
257.49	2.733
257.95	2.653
258.42	2.571
258.89	2.588
259.36	2.781
259.83	2.762
260.30	2.583
260.77	2.606
261.24	2.724
261.71	2.645
262.17	2.779
262.64	2.886
263.11	2.665
263.58	2.934
264.05	2.820
264.52	2.857
264.99	2.578
265.46	2.721
265.92	2.667
266.39	2.835
266.86	2.671
267.33	2.703
267.80	3.079
268.27	2.644
268.74	2.710
269.20	2.711
269.67	2.962
270.14	2.738
270.61	2.742
271.08	2.587
271.55	2.820
272.01	2.393
272.48	2.691
272.95	2.835
273.42	2.513
273.89	2.743
274.36	2.599
274.82	2.597
275.29	2.468
275.76	2.590
276.23	2.738
276.70	2.527
277.16	2.504
277.63	2.640
278.10	2.703
278.57	2.546
279.04	2.474
279.50	2.631
279.97	2.608
280.44	2.398
280.91	2.463
281.38	2.636
281.84	2.497
282.31	2.641
282.78	2.630
283.25	2.655
283.72	2.532
284.18	2.547
284.65	2.563
285.12	2.656
285.59	2.506
286.05	2.543
286.52	2.663
286.99	2.547
287.46	2.602
287.92	2.577
288.39	2.758
288.86	2.532
289.33	2.618
289.79	2.715
290.26	2.651
290.73	2.582
291.20	2.459
291.66	2.742
292.13	2.564
292.60	2.542
293.07	2.575
293.53	2.620
294.00	2.476
294.47	2.722
294.93	2.792
295.40	2.581
295.87	2.376
296.34	2.541
296.80	2.503
297.27	2.400
297.74	2.557
298.20	2.771
298.67	2.600
299.14	2.665
299.60	2.515
300.07	2.512
300.54	2.401
301.01	2.358
301.47	2.511
301.94	2.509
302.41	2.343
302.87	2.420
303.34	2.400
303.81	2.522
304.27	2.387
304.74	2.447
305.21	2.573
305.67	2.422
306.14	2.422
306.61	2.367
307.07	2.456
307.54	2.364
308.01	2.397
308.47	2.499
308.94	2.325
309.40	2.401
309.87	2.414
310.34	2.475
310.80	2.324
311.27	2.392
311.74	2.422
312.20	2.310
312.67	2.278
313.13	2.306
313.60	2.424
314.07	2.320
314.53	2.421
315.00	2.446
315.47	2.404
315.93	2.385
316.40	2.452
316.86	2.522
317.33	2.412
317.80	2.394
318.26	2.381
318.73	2.346
319.19	2.336
319.66	2.346
320.13	2.377
320.59	2.313
321.06	2.323
321.52	2.333
321.99	2.394
322.45	2.360
322.92	2.239
323.39	2.349
323.85	2.381
324.32	2.286
324.78	2.263
325.25	2.292
325.71	2.300
326.18	2.226
326.64	2.224
327.11	2.256
327.58	2.169
328.04	2.231
328.51	2.283
328.97	2.269
329.44	2.203
329.90	2.226
330.37	2.095
330.83	2.197
331.30	2.269
331.76	2.142
332.23	2.216
332.69	2.217
333.16	2.263
333.62	2.198
334.09	2.202
334.56	2.153
335.02	2.247
335.49	2.187
335.95	2.130
336.42	2.154
336.88	2.105
337.35	2.036
337.81	2.066
338.28	2.112
338.74	2.121
339.20	2.126
339.67	2.140
340.13	2.124
340.60	2.167
341.06	2.064
341.53	2.178
341.99	2.164
342.46	2.119
342.92	2.079
343.39	2.118
343.85	2.125
344.32	2.088
344.78	2.111
345.25	2.147
345.71	2.158
346.17	2.074
346.64	2.082
347.10	1.993
347.57	2.074
348.03	2.009
348.50	1.974
348.96	1.966
349.43	1.967
349.89	1.881
350.35	1.862
350.82	1.848
351.28	1.784
351.75	1.772
352.21	1.772
352.67	1.718
353.14	1.701
353.60	1.678
354.07	1.739
354.53	1.636
355.00	1.669
355.46	1.597
355.92	1.578
356.39	1.553
356.85	1.509
357.31	1.527
357.78	1.468
358.24	1.400
358.71	1.349
359.17	1.296
359.63	1.218
360.10	1.170
360.56	1.098
361.03	1.021
361.49	0.952
361.95	0.876
362.42	0.801
362.88	0.735
363.34	0.662
363.81	0.609
364.27	0.548
364.73	0.498
365.20	0.447
365.66	0.409
366.12	0.367
366.59	0.335
367.05	0.309
367.51	0.281
367.98	0.259
368.44	0.244
368.90	0.228
369.37	0.217
369.83	0.203
370.29	0.194
370.76	0.191
371.22	0.183
371.68	0.175
372.15	0.170
372.61	0.169
373.07	0.160
373.54	0.159
374.00	0.156
374.46	0.154
374.92	0.147
375.39	0.148
375.85	0.148
376.31	0.144
376.78	0.142
377.24	0.142
377.70	0.141
378.16	0.139
378.63	0.136
379.09	0.136
379.55	0.135
380.01	0.134
380.48	0.135
380.94	0.133
381.40	0.131
381.87	0.129
382.33	0.130
382.79	0.131
383.25	0.128
383.72	0.127
384.18	0.128
384.64	0.123
385.10	0.124
385.56	0.124
386.03	0.125
386.49	0.123
386.95	0.123
387.41	0.121
387.88	0.123
388.34	0.120
388.80	0.120
389.26	0.118
389.72	0.116
390.19	0.118
390.65	0.118
391.11	0.117
391.57	0.117
392.04	0.116
392.50	0.116
392.96	0.116
393.42	0.113
393.88	0.117
394.34	0.115
394.81	0.113
395.27	0.111
395.73	0.111
396.19	0.112
396.65	0.112
397.12	0.110
397.58	0.108
398.04	0.111
398.50	0.109
398.96	0.108
399.42	0.107
399.89	0.107
400.35	0.105
400.81	0.107
401.27	0.110
401.73	0.104
402.19	0.103
402.65	0.103
403.12	0.101
403.58	0.102
404.04	0.102
404.50	0.102
404.96	0.101
405.42	0.099
405.88	0.099
406.34	0.097
406.81	0.099
407.27	0.099
407.73	0.097
408.19	0.094
408.65	0.097
409.11	0.094
409.57	0.096
410.03	0.095
410.49	0.095
410.96	0.093
411.42	0.092
411.88	0.094
412.34	0.091
412.80	0.092
413.26	0.093
413.72	0.090
414.18	0.091
414.64	0.090
415.10	0.091
415.56	0.090
416.02	0.087
416.48	0.087
416.95	0.086
417.41	0.089
417.87	0.088
418.33	0.087
418.79	0.088
419.25	0.089
419.71	0.086
420.17	0.085
420.63	0.085
421.09	0.087
421.55	0.087
422.01	0.082
422.47	0.086
422.93	0.086
423.39	0.085
423.85	0.085
424.31	0.083
424.77	0.083
425.23	0.083
425.69	0.083
426.15	0.081
426.61	0.084
427.07	0.082
427.53	0.083
427.99	0.083
428.45	0.082
428.91	0.083
429.37	0.086
429.83	0.081
430.29	0.083
430.75	0.079
431.21	0.081
431.67	0.082
432.13	0.078
432.59	0.080
433.05	0.077
433.51	0.082
433.97	0.082
434.43	0.078
434.89	0.077
435.35	0.077
435.81	0.074
436.27	0.077
436.73	0.079
437.19	0.078
437.65	0.073
438.11	0.076
438.57	0.080
439.03	0.076
439.48	0.074
439.94	0.076
440.40	0.077
440.86	0.077
441.32	0.076
441.78	0.076
442.24	0.076
442.70	0.073
443.16	0.075
443.62	0.074
444.08	0.074
444.54	0.077
444.99	0.074
445.45	0.072
445.91	0.073
446.37	0.074
446.83	0.072
447.29	0.074
447.75	0.075
448.21	0.072
448.67	0.072
449.12	0.071
449.58	0.069
450.04	0.071
450.50	0.069
450.96	0.069
451.42	0.072
451.88	0.073
452.34	0.074
452.79	0.069
453.25	0.069
453.71	0.068
454.17	0.070
454.63	0.071
455.09	0.072
455.55	0.071
456.00	0.070
456.46	0.070
456.92	0.072
457.38	0.072
457.84	0.067
458.30	0.069
458.75	0.068
459.21	0.070
459.67	0.069
460.13	0.071
460.59	0.070
461.04	0.069
461.50	0.069
461.96	0.069
462.42	0.070
462.88	0.067
463.33	0.070
463.79	0.073
464.25	0.069
464.71	0.070
465.17	0.069
465.62	0.071
466.08	0.070
466.54	0.068
467.00	0.070
467.46	0.070
467.91	0.070
468.37	0.069
468.83	0.068
469.29	0.068
469.74	0.069
470.20	0.070
470.66	0.069
471.12	0.070
471.57	0.069
472.03	0.069
472.49	0.071
472.95	0.068
473.40	0.069
473.86	0.069
474.32	0.068
474.78	0.067
475.23	0.069
475.69	0.068
476.15	0.071
476.60	0.069
477.06	0.067
477.52	0.068
477.98	0.069
478.43	0.068
478.89	0.071
479.35	0.067
479.80	0.069
480.26	0.068
480.72	0.069
481.18	0.066
481.63	0.067
482.09	0.068
482.55	0.068
483.00	0.066
483.46	0.066
483.92	0.067
484.37	0.070
484.83	0.068
485.29	0.069
485.74	0.069
486.20	0.067
486.66	0.067
487.11	0.066
487.57	0.067
488.03	0.070
488.48	0.068
488.94	0.070
489.40	0.068
489.85	0.066
490.31	0.066
490.77	0.069
491.22	0.065
491.68	0.067
492.13	0.067
492.59	0.068
493.05	0.068
493.50	0.067
493.96	0.065
494.42	0.067
494.87	0.066
495.33	0.068
495.78	0.066
496.24	0.065
496.70	0.066
497.15	0.067
497.61	0.065
498.06	0.068
498.52	0.067
498.98	0.068
499.43	0.066
499.89	0.065
500.34	0.065
500.80	0.066
501.25	0.068
501.71	0.068
502.17	0.065
502.62	0.065
503.08	0.062
503.53	0.065
503.99	0.066
504.44	0.066
504.90	0.065
505.36	0.066
505.81	0.063
506.27	0.062
506.72	0.066
507.18	0.065
507.63	0.064
508.09	0.065
508.54	0.063
509.00	0.064
509.45	0.065
509.91	0.064
510.36	0.064
510.82	0.067
511.27	0.063
511.73	0.064
512.19	0.062
512.64	0.065
513.10	0.065
513.55	0.062
514.01	0.062
514.46	0.064
514.92	0.061
515.37	0.063
515.83	0.061
516.28	0.064
516.73	0.063
517.19	0.062
517.64	0.063
518.10	0.061
518.55	0.067
519.01	0.061
519.46	0.061
519.92	0.063
520.37	0.061
520.83	0.063
521.28	0.064
521.74	0.062
522.19	0.063
522.65	0.062
523.10	0.062
523.55	0.062
524.01	0.064
524.46	0.061
524.92	0.063
525.37	0.063
525.83	0.062
526.28	0.060
526.73	0.064
527.19	0.062
527.64	0.064
528.10	0.062
528.55	0.062
529.01	0.061
529.46	0.064
529.91	0.062
530.37	0.062
530.82	0.063
531.28	0.063
531.73	0.062
532.18	0.063
532.64	0.061
533.09	0.063
533.54	0.062
534.00	0.062
534.45	0.065
534.91	0.063
535.36	0.063
535.81	0.063
536.27	0.066
536.72	0.063
537.17	0.065
537.63	0.065
538.08	0.066
538.54	0.064
538.99	0.065
539.44	0.067
539.90	0.066
540.35	0.065
540.80	0.067
541.26	0.066
541.71	0.067
542.16	0.067
542.62	0.068
543.07	0.069
543.52	0.068
543.98	0.070
544.43	0.067
544.88	0.068
545.34	0.071
545.79	0.070
546.24	0.071
546.69	0.070
547.15	0.069
547.60	0.074
548.05	0.071
548.51	0.071
548.96	0.072
549.41	0.075
549.86	0.073
550.32	0.074
550.77	0.075
551.22	0.076
551.68	0.075
552.13	0.074
552.58	0.075
553.03	0.076
553.49	0.076
553.94	0.076
554.39	0.079
554.84	0.080
555.30	0.078
555.75	0.080
556.20	0.081
556.65	0.081
557.11	0.081
557.56	0.081
558.01	0.082
558.46	0.085
558.92	0.083
559.37	0.082
559.82	0.087
560.27	0.087
560.72	0.084
561.18	0.086
561.63	0.088
562.08	0.089
562.53	0.087
562.99	0.090
563.44	0.088
563.89	0.090
564.34	0.091
564.79	0.092
565.25	0.094
565.70	0.092
566.15	0.093
566.60	0.094
567.05	0.096
567.50	0.097
567.96	0.098
568.41	0.098
568.86	0.097
569.31	0.101
569.76	0.100
570.21	0.100
570.67	0.097
571.12	0.101
571.57	0.102
572.02	0.105
572.47	0.106
572.92	0.107
573.37	0.105
573.83	0.109
574.28	0.110
574.73	0.109
575.18	0.110
575.63	0.112
576.08	0.110
576.53	0.112
576.98	0.114
577.44	0.114
577.89	0.114
578.34	0.117
578.79	0.120
579.24	0.118
579.69	0.122
580.14	0.122
580.59	0.122
581.04	0.124
581.49	0.127
581.95	0.128
582.40	0.128
582.85	0.130
583.30	0.131
583.75	0.132
584.20	0.134
584.65	0.134
585.10	0.136
585.55	0.138
586.00	0.141
586.45	0.142
586.90	0.143
587.35	0.145
587.80	0.147
588.25	0.148
588.71	0.148
589.16	0.152
589.61	0.157
590.06	0.158
590.51	0.160
590.96	0.159
591.41	0.163
591.86	0.165
592.31	0.168
592.76	0.170
593.21	0.170
593.66	0.172
594.11	0.177
594.56	0.179
595.01	0.182
595.46	0.185
595.91	0.184
596.36	0.187
596.81	0.189
597.26	0.190
597.71	0.192
598.16	0.195
598.61	0.199
599.06	0.199
599.51	0.200
599.96	0.204
600.41	0.205
600.86	0.211
601.31	0.210
601.76	0.213
602.21	0.215
602.65	0.217
603.10	0.220
603.55	0.222
604.00	0.224
604.45	0.225
604.90	0.228
605.35	0.232
605.80	0.229
606.25	0.231
606.70	0.235
607.15	0.238
607.60	0.239
608.05	0.240
608.50	0.243
608.95	0.245
609.39	0.246
609.84	0.245
610.29	0.246
610.74	0.250
611.19	0.249
611.64	0.252
612.09	0.253
612.54	0.254
612.99	0.256
613.44	0.258
613.88	0.260
614.33	0.255
614.78	0.259
615.23	0.259
615.68	0.261
616.13	0.262
616.58	0.262
617.03	0.261
617.47	0.263
617.92	0.265
618.37	0.264
618.82	0.265
619.27	0.265
619.72	0.266
620.17	0.268
620.61	0.267
621.06	0.268
621.51	0.268
621.96	0.269
622.41	0.272
622.86	0.271
623.30	0.272
623.75	0.271
624.20	0.273
624.65	0.275
625.10	0.273
625.54	0.274
625.99	0.275
626.44	0.277
626.89	0.277
627.34	0.279
627.78	0.279
628.23	0.283
628.68	0.281
629.13	0.284
629.58	0.282
630.02	0.285
630.47	0.288
630.92	0.291
631.37	0.291
631.81	0.294
632.26	0.296
632.71	0.300
633.16	0.301
633.61	0.301
634.05	0.304
634.50	0.306
634.95	0.307
635.40	0.307
635.84	0.315
636.29	0.314
636.74	0.319
637.18	0.319
637.63	0.322
638.08	0.326
638.53	0.329
638.97	0.331
639.42	0.337
639.87	0.339
640.32	0.341
640.76	0.346
641.21	0.348
641.66	0.353
642.10	0.356
642.55	0.358
643.00	0.363
643.44	0.365
643.89	0.370
644.34	0.374
644.79	0.378
645.23	0.381
645.68	0.387
646.13	0.389
646.57	0.391
647.02	0.394
647.47	0.396
647.91	0.402
648.36	0.410
648.81	0.412
649.25	0.416
649.70	0.418
650.15	0.422
650.59	0.426
651.04	0.432
651.48	0.431
651.93	0.435
652.38	0.439
652.82	0.444
653.27	0.446
653.72	0.452
654.16	0.453
654.61	0.458
655.06	0.463
655.50	0.463
655.95	0.465
656.39	0.470
656.84	0.470
657.29	0.474
657.73	0.476
658.18	0.481
658.62	0.483
659.07	0.486
659.52	0.487
659.96	0.491
660.41	0.491
660.85	0.490
661.30	0.495
661.74	0.502
662.19	0.501
662.64	0.499
663.08	0.503
663.53	0.504
663.97	0.503
664.42	0.505
664.86	0.508
665.31	0.505
665.75	0.506
666.20	0.505
666.65	0.506
667.09	0.504
667.54	0.502
667.98	0.501
668.43	0.501
668.87	0.500
669.32	0.494
669.76	0.492
670.21	0.486
670.65	0.484
671.10	0.481
671.54	0.474
671.99	0.468
672.43	0.461
672.88	0.457
673.32	0.451
673.77	0.444
674.21	0.439
674.66	0.427
675.10	0.421
675.55	0.413
675.99	0.406
676.44	0.399
676.88	0.388
677.33	0.378
677.77	0.369
678.22	0.363
678.66	0.351
679.11	0.341
679.55	0.332
679.99	0.323
680.44	0.314
680.88	0.305
681.33	0.295
681.77	0.289
682.22	0.277
682.66	0.267
683.11	0.258
683.55	0.249
683.99	0.240
684.44	0.235
684.88	0.225
685.33	0.215
685.77	0.207
686.21	0.199
686.66	0.192
687.10	0.185
687.55	0.178
687.99	0.174
688.44	0.167
688.88	0.159
689.32	0.154
689.77	0.147
690.21	0.138
690.65	0.135
691.10	0.129
691.54	0.126
691.99	0.119
692.43	0.116
692.87	0.110
693.32	0.107
693.76	0.103
694.20	0.101
694.65	0.098
695.09	0.092
695.53	0.090
695.98	0.087
696.42	0.081
696.86	0.080
697.31	0.078
697.75	0.076
698.19	0.074
698.64	0.070
699.08	0.069
699.52	0.066
699.97	0.064
700.41	0.064
700.85	0.060
701.30	0.059
701.74	0.054
702.18	0.057
702.63	0.053
703.07	0.056
703.51	0.052
703.96	0.049
704.40	0.050
704.84	0.048
705.28	0.047
705.73	0.045
706.17	0.043
706.61	0.043
707.06	0.043
707.50	0.041
707.94	0.041
708.38	0.038
708.83	0.040
709.27	0.037
709.71	0.039
710.15	0.037
710.60	0.036
711.04	0.036
711.48	0.035
711.92	0.037
712.37	0.036
712.81	0.035
713.25	0.032
713.69	0.036
714.13	0.031
714.58	0.031
715.02	0.033
715.46	0.033
715.90	0.033
716.35	0.031
716.79	0.032
717.23	0.032
717.67	0.031
718.11	0.028
718.56	0.031
719.00	0.030
719.44	0.030
719.88	0.034
720.32	0.029
720.76	0.031
721.21	0.032
721.65	0.032
722.09	0.031
722.53	0.033
722.97	0.031
723.41	0.030
723.86	0.029
724.30	0.032
724.74	0.031
725.18	0.033
725.62	0.030
726.06	0.034
726.50	0.027
726.95	0.029
727.39	0.032
727.83	0.031
728.27	0.029
728.71	0.028
729.15	0.032
729.59	0.031
730.03	0.031
730.48	0.033
730.92	0.031
731.36	0.031
731.80	0.030
732.24	0.032
732.68	0.033
733.12	0.031
733.56	0.031
734.00	0.033
734.44	0.033
734.89	0.032
735.33	0.032
735.77	0.034
736.21	0.033
736.65	0.035
737.09	0.033
737.53	0.034
737.97	0.035
738.41	0.032
738.85	0.034
739.29	0.031
739.73	0.033
740.17	0.034
740.61	0.037
741.05	0.033
741.49	0.031
741.93	0.032
742.37	0.033
742.81	0.035
743.26	0.031
743.70	0.034
744.14	0.032
744.58	0.032
745.02	0.035
745.46	0.034
745.90	0.035
746.34	0.034
746.78	0.033
747.22	0.034
747.66	0.033
748.10	0.034
748.54	0.034
748.98	0.035
749.42	0.035
749.86	0.034
750.29	0.036
750.73	0.034
751.17	0.031
751.61	0.034
752.05	0.034
752.49	0.032
752.93	0.034
753.37	0.033
753.81	0.033
754.25	0.034
754.69	0.034
755.13	0.033
755.57	0.033
756.01	0.034
756.45	0.031
756.89	0.034
757.33	0.033
757.77	0.033
758.21	0.034
758.64	0.034
759.08	0.030
759.52	0.032
759.96	0.035
760.40	0.031
760.84	0.031
761.28	0.034
761.72	0.034
762.16	0.033
762.60	0.033
763.03	0.032
763.47	0.029
763.91	0.029
764.35	0.028
764.79	0.035
765.23	0.031
765.67	0.030
766.11	0.032
766.54	0.032
766.98	0.030
767.42	0.032
767.86	0.033
768.30	0.034
768.74	0.033
769.17	0.036
769.61	0.035
770.05	0.031
770.49	0.029
770.93	0.032
771.37	0.033
771.80	0.036
772.24	0.033
772.68	0.029
773.12	0.032
773.56	0.033
774.00	0.032
774.43	0.033
774.87	0.031
775.31	0.033
775.75	0.033
776.19	0.032
776.62	0.035
777.06	0.031
777.50	0.032
777.94	0.034
778.37	0.029
778.81	0.033
779.25	0.031
779.69	0.031
780.13	0.029
780.56	0.031
781.00	0.034
781.44	0.036
781.88	0.036
782.31	0.035
782.75	0.035
783.19	0.035
783.63	0.036
784.06	0.031
784.50	0.033
784.94	0.032
785.37	0.033
785.81	0.032
786.25	0.028
786.69	0.031
787.12	0.033
787.56	0.034
788.00	0.028
788.43	0.030
788.87	0.033
789.31	0.032
789.75	0.033
790.18	0.033
790.62	0.036
791.06	0.034
791.49	0.033
791.93	0.029
792.37	0.028
792.80	0.030
793.24	0.031
793.68	0.031
794.11	0.033
794.55	0.028
794.99	0.032
795.42	0.030
795.86	0.034
796.30	0.032
796.73	0.031
797.17	0.035
797.61	0.028
798.04	0.026
798.48	0.030
798.91	0.029
799.35	0.032
799.79	0.034
800.22	0.030
800.66	0.030
801.10	0.028
801.53	0.027
801.97	0.028
802.40	0.030
802.84	0.033
803.28	0.031
803.71	0.032
804.15	0.032
804.58	0.028
805.02	0.030
805.46	0.030
805.89	0.028
806.33	0.031
806.76	0.034
807.20	0.034
807.63	0.032
808.07	0.035
808.51	0.030
808.94	0.035
809.38	0.034
809.81	0.030
810.25	0.029
810.68	0.037
811.12	0.028
811.55	0.030
811.99	0.028
812.42	0.031
812.86	0.034
813.29	0.029
813.73	0.029
814.17	0.030
814.60	0.028
815.04	0.029
815.47	0.030
815.91	0.035
816.34	0.031
816.78	0.031
817.21	0.030
817.65	0.032
818.08	0.034
818.52	0.030
818.95	0.032
819.39	0.034
819.82	0.031
820.25	0.036
820.69	0.031
821.12	0.033
821.56	0.038
821.99	0.029
822.43	0.036
822.86	0.029
823.30	0.030
823.73	0.029
824.17	0.031
824.60	0.029
825.04	0.030
825.47	0.029
825.90	0.032
826.34	0.035
826.77	0.037
827.21	0.030
827.64	0.030
828.08	0.038
828.51	0.036
828.94	0.032
829.38	0.034
829.81	0.034
830.25	0.032
830.68	0.034
831.11	0.040
831.55	0.038
831.98	0.038
832.42	0.035
832.85	0.037
833.28	0.033
833.72	0.036
834.15	0.042
834.58	0.039
835.02	0.035
835.45	0.037
835.88	0.037
836.32	0.041
836.75	0.041
837.19	0.037
837.62	0.039
838.05	0.041
838.49	0.040
838.92	0.038
839.35	0.041
839.79	0.037
840.22	0.036
840.65	0.036
841.09	0.038
841.52	0.036
841.95	0.043
842.39	0.036
842.82	0.038
843.25	0.041
843.68	0.037
844.12	0.040
844.55	0.035
844.98	0.037
845.42	0.034
845.85	0.045
846.28	0.045
846.71	0.039
847.15	0.042
847.58	0.044
848.01	0.037
848.45	0.041
848.88	0.042
849.31	0.040
849.74	0.040
850.18	0.041
850.61	0.041
851.04	0.039
851.47	0.043
851.91	0.043
852.34	0.038
852.77	0.042
853.20	0.040
853.64	0.043
854.07	0.042
854.50	0.045
854.93	0.044
855.36	0.041
855.80	0.039
856.23	0.043
856.66	0.046
857.09	0.045
857.52	0.044
857.96	0.042
858.39	0.045
858.82	0.039
859.25	0.045
859.68	0.044
860.12	0.046
860.55	0.046
860.98	0.038
861.41	0.037
861.84	0.044
862.27	0.045
862.71	0.045
863.14	0.039
863.57	0.045
864.00	0.049
864.43	0.043
864.86	0.040
865.30	0.050
865.73	0.046
866.16	0.046
866.59	0.047
867.02	0.046
867.45	0.044
867.88	0.044
868.31	0.042
868.75	0.043
869.18	0.049
869.61	0.043
870.04	0.046
870.47	0.050
870.90	0.044
871.33	0.047
871.76	0.044
872.19	0.045
872.62	0.046
873.06	0.047
873.49	0.050
873.92	0.050
874.35	0.044
874.78	0.047
875.21	0.046
875.64	0.047
876.07	0.049
876.50	0.049
876.93	0.046
877.36	0.056
877.79	0.049
878.22	0.057
878.65	0.054
879.08	0.053
879.51	0.045
879.94	0.045
880.37	0.049
880.80	0.051
881.23	0.051
881.67	0.048
882.10	0.048
882.53	0.049
882.96	0.053
883.39	0.047
883.82	0.048
884.25	0.054
884.68	0.053
885.11	0.051
885.54	0.057
885.97	0.057
886.39	0.056
886.82	0.052
887.25	0.057
887.68	0.052
888.11	0.052
888.54	0.053
888.97	0.051
889.40	0.053
889.83	0.056
890.26	0.057
890.69	0.054
891.12	0.057
891.55	0.057
891.98	0.056
892.41	0.058
892.84	0.058
893.27	0.055
893.70	0.055
894.13	0.054
894.56	0.053
894.98	0.054
895.41	0.054
895.84	0.055
896.27	0.059
896.70	0.052
897.13	0.058
897.56	0.065
897.99	0.056
898.42	0.060
898.85	0.064
899.27	0.059
899.70	0.062
900.13	0.061
900.56	0.058
900.99	0.059
901.42	0.058
901.85	0.057
902.28	0.058
902.70	0.065
903.13	0.058
903.56	0.054
903.99	0.061
904.42	0.061
904.85	0.057
905.27	0.061
905.70	0.061
906.13	0.060
906.56	0.061
906.99	0.061
907.42	0.060
907.84	0.061
908.27	0.063
908.70	0.059
909.13	0.061
909.56	0.060
909.98	0.061
910.41	0.059
910.84	0.063
911.27	0.059
911.70	0.059
912.12	0.062
912.55	0.060
912.98	0.058
913.41	0.060
913.84	0.057
914.26	0.061
914.69	0.060
915.12	0.060
915.55	0.061
915.97	0.059
916.40	0.060
916.83	0.057
917.26	0.055
917.68	0.060
918.11	0.056
918.54	0.056
918.97	0.060
919.39	0.062
919.82	0.061
920.25	0.057
920.67	0.064
921.10	0.057
921.53	0.063
921.96	0.063
922.38	0.066
922.81	0.066
923.24	0.064
923.66	0.064
924.09	0.065
924.52	0.069
924.94	0.068
925.37	0.067
925.80	0.071
926.22	0.070
926.65	0.072
927.08	0.066
927.50	0.072
927.93	0.074
928.36	0.074
928.78	0.072
929.21	0.073
929.64	0.081
930.06	0.077
930.49	0.077
930.92	0.075
931.34	0.080
931.77	0.077
932.20	0.078
932.62	0.085
933.05	0.081
933.47	0.082
933.90	0.085
934.33	0.081
934.75	0.085
935.18	0.091
935.61	0.090
936.03	0.090
936.46	0.090
936.88	0.092
937.31	0.095
937.73	0.102
938.16	0.092
938.59	0.104
939.01	0.103
939.44	0.105
939.86	0.103
940.29	0.112
940.71	0.109
941.14	0.114
941.57	0.106
941.99	0.116
942.42	0.117
942.84	0.118
943.27	0.109
943.69	0.125
944.12	0.122
944.54	0.127
944.97	0.125
945.39	0.131
945.82	0.127
946.24	0.127
946.67	0.132
947.09	0.139
947.52	0.133
947.94	0.130
948.37	0.142
948.79	0.143
949.22	0.149
949.64	0.148
950.07	0.150
950.49	0.151
950.92	0.151
951.34	0.164
951.77	0.167
952.19	0.166
952.62	0.166
953.04	0.172
953.47	0.168
953.89	0.170
954.32	0.176
954.74	0.180
955.17	0.186
955.59	0.188
956.01	0.189
956.44	0.192
956.86	0.189
957.29	0.200
957.71	0.201
958.14	0.202
958.56	0.209
958.98	0.208
959.41	0.212
959.83	0.210
960.26	0.210
960.68	0.213
961.10	0.213
961.53	0.215
961.95	0.217
962.38	0.215
962.80	0.212
963.22	0.213
963.65	0.221
964.07	0.216
964.50	0.219
964.92	0.223
965.34	0.214
965.77	0.230
966.19	0.232
966.61	0.225
967.04	0.218
967.46	0.224
967.88	0.224
968.31	0.229
968.73	0.233
969.15	0.229
969.58	0.227
970.00	0.225
970.42	0.232
970.85	0.229
971.27	0.223
971.69	0.226
972.12	0.228
972.54	0.239
972.96	0.235
973.39	0.225
973.81	0.229
974.23	0.234
974.65	0.245
975.08	0.236
975.50	0.234
975.92	0.232
976.35	0.232
976.77	0.238
977.19	0.233
977.61	0.238
978.04	0.236
978.46	0.244
978.88	0.231
979.30	0.235
979.73	0.227
980.15	0.234
980.57	0.234
980.99	0.235
981.42	0.235
981.84	0.230
982.26	0.235
982.68	0.230
983.11	0.234
983.53	0.234
983.95	0.233
984.37	0.227
984.79	0.224
985.22	0.239
985.64	0.225
986.06	0.227
986.48	0.225
986.90	0.225
987.33	0.231
987.75	0.230
988.17	0.229
988.59	0.231
989.01	0.226
989.43	0.224
989.86	0.224
990.28	0.231
990.70	0.229
991.12	0.222
991.54	0.223
991.96	0.224
992.39	0.219
992.81	0.216
993.23	0.217
993.65	0.216
994.07	0.224
994.49	0.216
994.91	0.214
995.34	0.215
995.76	0.215
996.18	0.216
996.60	0.222
997.02	0.216
997.44	0.205
997.86	0.211
998.28	0.208
998.70	0.208
999.12	0.212
999.55	0.213
999.97	0.212
1000.39	0.192
1000.81	0.209
1001.23	0.207
1001.65	0.210
1002.07	0.206
1002.49	0.199
1002.91	0.204
1003.33	0.210
1003.75	0.206
1004.17	0.207
1004.59	0.202
1005.01	0.195
1005.43	0.195
1005.85	0.200
1006.28	0.195
1006.70	0.199
1007.12	0.193
1007.54	0.200
1007.96	0.183
1008.38	0.194
1008.80	0.197
1009.22	0.196
1009.64	0.179
1010.06	0.189
1010.48	0.189
1010.90	0.183
1011.32	0.180
1011.74	0.175
1012.16	0.181
1012.58	0.174
1013.00	0.171
1013.42	0.186
1013.84	0.179
1014.26	0.176
1014.67	0.187
1015.09	0.169
1015.51	0.182
1015.93	0.181
1016.35	0.170
1016.77	0.175
1017.19	0.179
1017.61	0.170
1018.03	0.182
1018.45	0.175
1018.87	0.167
1019.29	0.157
1019.71	0.165
1020.13	0.158
1020.55	0.167
1020.97	0.165
1021.38	0.152
1021.80	0.175
1022.22	0.164
1022.64	0.157
1023.06	0.141
1023.48	0.145
1023.90	0.157
1024.32	0.157
1024.74	0.144
1025.15	0.156
1025.57	0.152
1025.99	0.161
1026.41	0.151
1026.83	0.138
1027.25	0.157
1027.67	0.149
1028.08	0.148
1028.50	0.147
1028.92	0.145
1029.34	0.140
1029.76	0.139
1030.18	0.124
1030.60	0.134
1031.01	0.150
1031.43	0.131
1031.85	0.130
1032.27	0.137
1032.69	0.128
1033.10	0.130
1033.52	0.124
1033.94	0.144
1034.36	0.151
1034.78	0.121
1035.19	0.123
1035.61	0.140
1036.03	0.121
1036.45	0.139
1036.87	0.127
1037.28	0.119
1037.70	0.113
1038.12	0.126
1038.54	0.141
1038.95	0.122
1039.37	0.127
1039.79	0.116
1040.21	0.111
1040.62	0.127
1041.04	0.119
1041.46	0.116
1041.88	0.118
1042.29	0.118
1042.71	0.121
1043.13	0.097
1043.55	0.114
1043.96	0.116
1044.38	0.103
1044.80	0.110
1045.21	0.098
1045.63	0.118
1046.05	0.097
1046.47	0.117
1046.88	0.114
1047.30	0.115
1047.72	0.106
1048.13	0.104
1048.55	0.109
1048.97	0.134
1049.38	0.098
1049.80	0.092
1050.22	0.106
1050.63	0.098
1051.05	0.106
1051.47	0.097
1051.88	0.108
1052.30	0.095
1052.72	0.101
1053.13	0.119
1053.55	0.108
1053.97	0.091
1054.38	0.104
1054.80	0.111
1055.21	0.091
1055.63	0.109
1056.05	0.117
1056.46	0.125
1056.88	0.110
1057.29	0.103
1057.71	0.086
1058.13	0.088
1058.54	0.098
1058.96	0.092
1059.37	0.134
1059.79	0.113
1060.21	0.084
1060.62	0.060
1061.04	0.138
1061.45	0.114
1061.87	0.126
1062.28	0.128
1062.70	0.131
1063.12	0.107
1063.53	0.100
1063.95	0.093
1064.36	0.108
1064.78	0.120
1065.19	0.094
1065.61	0.126
1066.02	0.087
1066.44	0.031
1066.85	0.079
1067.27	0.095
1067.68	0.134
1068.10	0.086
1068.51	0.167
1068.93	0.196
1069.35	0.127
1069.76	0.158
1070.17	0.125
1070.59	0.137
1071.00	0.075
1071.42	0.112
1071.83	0.172
1072.25	0.158
1072.66	0.192
1073.08	0.204
1073.49	0.251
1073.91	0.199
1074.32	0.221
1074.74	0.261
1075.15	0.160
1075.57	0.261
1075.98	0.180
1076.40	0.050
1076.81	0.131
1077.22	0.289
1077.64	0.177
1078.05	0.138
1078.47	0.051
1078.88	0.329
1079.30	0.126
1079.71	0.079
1080.12	0.259
1080.54	0.074
1080.95	0.330
1081.37	0.166
1081.78	0.266
1082.19	0.087
1082.61	0.116
1083.02	0.157
1083.44	0.214
1083.85	0.081
1084.26	-0.000
1084.68	0.134
1085.09	0.270
1085.50	0.380
1085.92	0.368
1086.33	0.433
1086.74	0.325
1087.16	0.216
1087.57	0.170
1087.98	0.171
1088.40	0.455
1088.81	0.312
1089.22	0.141
1089.64	0.274
1090.05	0.222
1090.46	0.310
1090.88	0.191
1091.29	0.109
1091.70	0.594
1092.12	0.795
1092.53	0.327
1092.94	0.756
1093.36	0.526
1093.77	0.421
1094.18	0.506
1094.59	0.176
1095.01	0.269
1095.42	0.196
1095.83	0.989
1096.25	0.329
1096.66	0.510
1097.07	0.254
1097.48	0.463
1097.90	0.141
1098.31	0.354
1098.72	0.082
1099.13	0.178
>>>>>End Processed Spectral Data<<<<<
