SpectraSuite Data File
++++++++++++++++++++++++++++++++++++
Date: Tue Jul 11 16:12:02 CEST 2017
User: IPCE
Dark Spectrum Present: Yes
Reference Spectrum Present: Yes
Number of Sampled Component Spectra: 1
Spectrometers: HR+C0708
Integration Time (usec): 1000 (HR+C0708)
Spectra Averaged: 10 (HR+C0708)
Boxcar Smoothing: 0 (HR+C0708)
Correct for Electrical Dark: No (HR+C0708)
Strobe/Lamp Enabled: No (HR+C0708)
Correct for Detector Non-linearity: No (HR+C0708)
Correct for Stray Light: No (HR+C0708)
Number of Pixels in Processed Spectrum: 2048
>>>>>Begin Processed Spectral Data<<<<<
188.76	0.351
189.23	0.537
189.70	0.258
190.17	0.345
190.64	-0.000
191.12	0.105
191.59	-0.000
192.06	0.265
192.53	0.128
193.01	-0.000
193.48	-0.000
193.95	0.099
194.42	0.324
194.90	0.212
195.37	0.062
195.84	0.185
196.31	0.434
196.78	0.077
197.26	-0.012
197.73	0.325
198.20	0.348
198.67	-0.019
199.14	0.023
199.62	0.145
200.09	0.249
200.56	0.181
201.03	0.161
201.50	0.256
201.97	0.206
202.45	0.333
202.92	0.373
203.39	0.360
203.86	0.338
204.33	0.301
204.80	0.230
205.28	0.255
205.75	0.344
206.22	0.449
206.69	0.351
207.16	0.156
207.63	0.269
208.11	0.330
208.58	0.242
209.05	0.249
209.52	0.363
209.99	0.297
210.46	0.237
210.93	0.285
211.41	0.275
211.88	0.263
212.35	0.371
212.82	0.194
213.29	0.259
213.76	0.355
214.23	0.222
214.70	0.221
215.18	0.355
215.65	0.301
216.12	0.202
216.59	0.344
217.06	0.405
217.53	0.217
218.00	0.228
218.47	0.381
218.94	0.287
219.41	0.348
219.89	0.437
220.36	0.333
220.83	0.390
221.30	0.416
221.77	0.483
222.24	0.456
222.71	0.559
223.18	0.442
223.65	0.489
224.12	0.444
224.59	0.421
225.06	0.623
225.54	0.533
226.01	0.598
226.48	0.674
226.95	0.645
227.42	0.716
227.89	0.648
228.36	0.783
228.83	0.919
229.30	0.851
229.77	0.906
230.24	1.107
230.71	1.055
231.18	1.001
231.65	1.200
232.12	1.483
232.59	1.257
233.06	1.373
233.53	1.360
234.00	1.520
234.47	1.489
234.94	1.560
235.41	1.546
235.88	1.666
236.35	1.588
236.82	1.647
237.29	1.718
237.76	1.743
238.23	1.721
238.70	1.812
239.17	1.943
239.64	1.863
240.11	1.862
240.58	1.939
241.05	2.038
241.52	1.924
241.99	1.981
242.46	1.997
242.93	1.991
243.40	2.052
243.87	2.209
244.34	2.160
244.81	2.090
245.28	2.068
245.75	2.162
246.22	2.196
246.69	2.118
247.16	2.198
247.63	2.244
248.10	2.108
248.57	2.130
249.04	2.155
249.51	2.255
249.98	2.100
250.45	2.255
250.92	2.175
251.39	2.042
251.85	1.995
252.32	1.916
252.79	1.785
253.26	1.731
253.73	1.678
254.20	1.559
254.67	1.471
255.14	1.396
255.61	1.352
256.08	1.300
256.55	1.238
257.02	1.193
257.49	1.154
257.95	1.113
258.42	1.072
258.89	1.041
259.36	1.015
259.83	0.991
260.30	0.958
260.77	0.939
261.24	0.915
261.71	0.898
262.17	0.875
262.64	0.852
263.11	0.835
263.58	0.821
264.05	0.806
264.52	0.790
264.99	0.774
265.46	0.760
265.92	0.753
266.39	0.737
266.86	0.723
267.33	0.709
267.80	0.704
268.27	0.693
268.74	0.681
269.20	0.668
269.67	0.662
270.14	0.655
270.61	0.646
271.08	0.635
271.55	0.627
272.01	0.617
272.48	0.611
272.95	0.606
273.42	0.597
273.89	0.591
274.36	0.588
274.82	0.578
275.29	0.572
275.76	0.570
276.23	0.566
276.70	0.562
277.16	0.557
277.63	0.554
278.10	0.548
278.57	0.546
279.04	0.536
279.50	0.537
279.97	0.538
280.44	0.533
280.91	0.529
281.38	0.527
281.84	0.523
282.31	0.524
282.78	0.527
283.25	0.524
283.72	0.522
284.18	0.519
284.65	0.516
285.12	0.516
285.59	0.517
286.05	0.513
286.52	0.517
286.99	0.513
287.46	0.512
287.92	0.511
288.39	0.515
288.86	0.510
289.33	0.508
289.79	0.510
290.26	0.511
290.73	0.505
291.20	0.501
291.66	0.504
292.13	0.497
292.60	0.493
293.07	0.492
293.53	0.485
294.00	0.481
294.47	0.476
294.93	0.469
295.40	0.462
295.87	0.457
296.34	0.450
296.80	0.444
297.27	0.437
297.74	0.430
298.20	0.422
298.67	0.417
299.14	0.410
299.60	0.398
300.07	0.393
300.54	0.385
301.01	0.379
301.47	0.372
301.94	0.365
302.41	0.359
302.87	0.351
303.34	0.343
303.81	0.339
304.27	0.333
304.74	0.325
305.21	0.321
305.67	0.313
306.14	0.309
306.61	0.301
307.07	0.296
307.54	0.291
308.01	0.286
308.47	0.283
308.94	0.277
309.40	0.274
309.87	0.274
310.34	0.266
310.80	0.265
311.27	0.260
311.74	0.260
312.20	0.255
312.67	0.255
313.13	0.254
313.60	0.248
314.07	0.248
314.53	0.242
315.00	0.244
315.47	0.242
315.93	0.238
316.40	0.239
316.86	0.237
317.33	0.237
317.80	0.230
318.26	0.229
318.73	0.231
319.19	0.225
319.66	0.226
320.13	0.223
320.59	0.223
321.06	0.220
321.52	0.223
321.99	0.220
322.45	0.219
322.92	0.216
323.39	0.214
323.85	0.215
324.32	0.212
324.78	0.210
325.25	0.207
325.71	0.206
326.18	0.205
326.64	0.207
327.11	0.202
327.58	0.205
328.04	0.200
328.51	0.201
328.97	0.202
329.44	0.199
329.90	0.195
330.37	0.196
330.83	0.194
331.30	0.193
331.76	0.189
332.23	0.190
332.69	0.186
333.16	0.185
333.62	0.183
334.09	0.181
334.56	0.179
335.02	0.176
335.49	0.173
335.95	0.170
336.42	0.170
336.88	0.167
337.35	0.167
337.81	0.167
338.28	0.163
338.74	0.166
339.20	0.163
339.67	0.164
340.13	0.161
340.60	0.163
341.06	0.157
341.53	0.153
341.99	0.158
342.46	0.157
342.92	0.154
343.39	0.153
343.85	0.150
344.32	0.152
344.78	0.149
345.25	0.147
345.71	0.152
346.17	0.149
346.64	0.148
347.10	0.146
347.57	0.146
348.03	0.145
348.50	0.142
348.96	0.143
349.43	0.143
349.89	0.140
350.35	0.142
350.82	0.139
351.28	0.138
351.75	0.138
352.21	0.139
352.67	0.136
353.14	0.134
353.60	0.133
354.07	0.130
354.53	0.130
355.00	0.125
355.46	0.128
355.92	0.127
356.39	0.125
356.85	0.123
357.31	0.118
357.78	0.123
358.24	0.116
358.71	0.118
359.17	0.114
359.63	0.109
360.10	0.111
360.56	0.108
361.03	0.107
361.49	0.106
361.95	0.103
362.42	0.098
362.88	0.097
363.34	0.093
363.81	0.093
364.27	0.089
364.73	0.090
365.20	0.086
365.66	0.087
366.12	0.085
366.59	0.081
367.05	0.083
367.51	0.081
367.98	0.082
368.44	0.079
368.90	0.077
369.37	0.079
369.83	0.073
370.29	0.074
370.76	0.079
371.22	0.075
371.68	0.073
372.15	0.072
372.61	0.074
373.07	0.074
373.54	0.076
374.00	0.073
374.46	0.074
374.92	0.071
375.39	0.071
375.85	0.073
376.31	0.071
376.78	0.073
377.24	0.068
377.70	0.071
378.16	0.073
378.63	0.070
379.09	0.068
379.55	0.068
380.01	0.068
380.48	0.069
380.94	0.069
381.40	0.068
381.87	0.067
382.33	0.067
382.79	0.069
383.25	0.067
383.72	0.070
384.18	0.068
384.64	0.067
385.10	0.066
385.56	0.068
386.03	0.066
386.49	0.063
386.95	0.066
387.41	0.065
387.88	0.068
388.34	0.065
388.80	0.063
389.26	0.066
389.72	0.063
390.19	0.065
390.65	0.065
391.11	0.066
391.57	0.065
392.04	0.065
392.50	0.060
392.96	0.064
393.42	0.063
393.88	0.068
394.34	0.066
394.81	0.065
395.27	0.063
395.73	0.060
396.19	0.064
396.65	0.062
397.12	0.060
397.58	0.060
398.04	0.062
398.50	0.063
398.96	0.061
399.42	0.061
399.89	0.059
400.35	0.060
400.81	0.061
401.27	0.064
401.73	0.058
402.19	0.059
402.65	0.060
403.12	0.057
403.58	0.059
404.04	0.059
404.50	0.059
404.96	0.059
405.42	0.057
405.88	0.057
406.34	0.058
406.81	0.058
407.27	0.056
407.73	0.059
408.19	0.054
408.65	0.055
409.11	0.056
409.57	0.058
410.03	0.056
410.49	0.055
410.96	0.052
411.42	0.056
411.88	0.055
412.34	0.053
412.80	0.053
413.26	0.056
413.72	0.051
414.18	0.056
414.64	0.054
415.10	0.053
415.56	0.053
416.02	0.052
416.48	0.051
416.95	0.052
417.41	0.051
417.87	0.054
418.33	0.051
418.79	0.051
419.25	0.055
419.71	0.051
420.17	0.052
420.63	0.050
421.09	0.050
421.55	0.053
422.01	0.048
422.47	0.052
422.93	0.053
423.39	0.050
423.85	0.052
424.31	0.048
424.77	0.051
425.23	0.050
425.69	0.050
426.15	0.053
426.61	0.054
427.07	0.052
427.53	0.051
427.99	0.051
428.45	0.050
428.91	0.048
429.37	0.050
429.83	0.051
430.29	0.052
430.75	0.049
431.21	0.051
431.67	0.052
432.13	0.048
432.59	0.049
433.05	0.052
433.51	0.052
433.97	0.049
434.43	0.049
434.89	0.047
435.35	0.050
435.81	0.045
436.27	0.047
436.73	0.049
437.19	0.050
437.65	0.048
438.11	0.049
438.57	0.051
439.03	0.047
439.48	0.047
439.94	0.047
440.40	0.048
440.86	0.051
441.32	0.048
441.78	0.048
442.24	0.044
442.70	0.047
443.16	0.045
443.62	0.045
444.08	0.047
444.54	0.048
444.99	0.047
445.45	0.048
445.91	0.046
446.37	0.050
446.83	0.046
447.29	0.047
447.75	0.045
448.21	0.047
448.67	0.047
449.12	0.046
449.58	0.044
450.04	0.042
450.50	0.044
450.96	0.043
451.42	0.049
451.88	0.048
452.34	0.047
452.79	0.046
453.25	0.046
453.71	0.047
454.17	0.045
454.63	0.049
455.09	0.045
455.55	0.048
456.00	0.045
456.46	0.047
456.92	0.047
457.38	0.047
457.84	0.047
458.30	0.048
458.75	0.046
459.21	0.047
459.67	0.048
460.13	0.047
460.59	0.047
461.04	0.045
461.50	0.044
461.96	0.046
462.42	0.048
462.88	0.045
463.33	0.047
463.79	0.048
464.25	0.046
464.71	0.047
465.17	0.048
465.62	0.044
466.08	0.046
466.54	0.047
467.00	0.046
467.46	0.048
467.91	0.047
468.37	0.046
468.83	0.048
469.29	0.047
469.74	0.049
470.20	0.046
470.66	0.047
471.12	0.049
471.57	0.047
472.03	0.046
472.49	0.048
472.95	0.046
473.40	0.047
473.86	0.046
474.32	0.047
474.78	0.047
475.23	0.047
475.69	0.046
476.15	0.050
476.60	0.045
477.06	0.047
477.52	0.047
477.98	0.049
478.43	0.048
478.89	0.049
479.35	0.048
479.80	0.051
480.26	0.046
480.72	0.048
481.18	0.047
481.63	0.047
482.09	0.050
482.55	0.050
483.00	0.049
483.46	0.048
483.92	0.048
484.37	0.049
484.83	0.050
485.29	0.050
485.74	0.048
486.20	0.047
486.66	0.047
487.11	0.048
487.57	0.050
488.03	0.050
488.48	0.048
488.94	0.049
489.40	0.048
489.85	0.048
490.31	0.047
490.77	0.052
491.22	0.047
491.68	0.049
492.13	0.047
492.59	0.049
493.05	0.048
493.50	0.049
493.96	0.048
494.42	0.049
494.87	0.049
495.33	0.048
495.78	0.047
496.24	0.049
496.70	0.052
497.15	0.049
497.61	0.049
498.06	0.050
498.52	0.048
498.98	0.049
499.43	0.049
499.89	0.047
500.34	0.049
500.80	0.048
501.25	0.050
501.71	0.047
502.17	0.048
502.62	0.047
503.08	0.047
503.53	0.049
503.99	0.051
504.44	0.049
504.90	0.047
505.36	0.045
505.81	0.048
506.27	0.047
506.72	0.048
507.18	0.048
507.63	0.050
508.09	0.046
508.54	0.046
509.00	0.047
509.45	0.050
509.91	0.050
510.36	0.047
510.82	0.050
511.27	0.046
511.73	0.046
512.19	0.045
512.64	0.046
513.10	0.046
513.55	0.048
514.01	0.046
514.46	0.047
514.92	0.046
515.37	0.046
515.83	0.045
516.28	0.049
516.73	0.046
517.19	0.046
517.64	0.046
518.10	0.047
518.55	0.049
519.01	0.046
519.46	0.048
519.92	0.048
520.37	0.047
520.83	0.048
521.28	0.047
521.74	0.047
522.19	0.045
522.65	0.048
523.10	0.046
523.55	0.046
524.01	0.046
524.46	0.047
524.92	0.047
525.37	0.050
525.83	0.049
526.28	0.046
526.73	0.050
527.19	0.048
527.64	0.050
528.10	0.048
528.55	0.046
529.01	0.049
529.46	0.051
529.91	0.048
530.37	0.046
530.82	0.049
531.28	0.050
531.73	0.048
532.18	0.050
532.64	0.050
533.09	0.049
533.54	0.050
534.00	0.048
534.45	0.051
534.91	0.047
535.36	0.052
535.81	0.048
536.27	0.052
536.72	0.049
537.17	0.052
537.63	0.054
538.08	0.053
538.54	0.051
538.99	0.050
539.44	0.054
539.90	0.052
540.35	0.051
540.80	0.052
541.26	0.052
541.71	0.054
542.16	0.055
542.62	0.053
543.07	0.054
543.52	0.054
543.98	0.056
544.43	0.054
544.88	0.054
545.34	0.057
545.79	0.058
546.24	0.055
546.69	0.054
547.15	0.057
547.60	0.061
548.05	0.057
548.51	0.058
548.96	0.056
549.41	0.059
549.86	0.059
550.32	0.059
550.77	0.060
551.22	0.061
551.68	0.060
552.13	0.060
552.58	0.061
553.03	0.061
553.49	0.063
553.94	0.061
554.39	0.064
554.84	0.065
555.30	0.065
555.75	0.064
556.20	0.068
556.65	0.065
557.11	0.067
557.56	0.068
558.01	0.067
558.46	0.069
558.92	0.069
559.37	0.070
559.82	0.071
560.27	0.072
560.72	0.070
561.18	0.070
561.63	0.073
562.08	0.072
562.53	0.069
562.99	0.074
563.44	0.072
563.89	0.072
564.34	0.074
564.79	0.076
565.25	0.077
565.70	0.077
566.15	0.079
566.60	0.077
567.05	0.078
567.50	0.080
567.96	0.080
568.41	0.083
568.86	0.081
569.31	0.082
569.76	0.083
570.21	0.083
570.67	0.081
571.12	0.084
571.57	0.087
572.02	0.086
572.47	0.090
572.92	0.088
573.37	0.088
573.83	0.090
574.28	0.091
574.73	0.091
575.18	0.092
575.63	0.092
576.08	0.093
576.53	0.094
576.98	0.094
577.44	0.095
577.89	0.094
578.34	0.097
578.79	0.101
579.24	0.100
579.69	0.100
580.14	0.102
580.59	0.101
581.04	0.105
581.49	0.108
581.95	0.107
582.40	0.107
582.85	0.107
583.30	0.110
583.75	0.112
584.20	0.114
584.65	0.114
585.10	0.116
585.55	0.116
586.00	0.118
586.45	0.119
586.90	0.120
587.35	0.120
587.80	0.124
588.25	0.123
588.71	0.124
589.16	0.126
589.61	0.131
590.06	0.131
590.51	0.133
590.96	0.135
591.41	0.135
591.86	0.139
592.31	0.142
592.76	0.141
593.21	0.142
593.66	0.145
594.11	0.146
594.56	0.147
595.01	0.151
595.46	0.152
595.91	0.151
596.36	0.156
596.81	0.159
597.26	0.158
597.71	0.161
598.16	0.160
598.61	0.164
599.06	0.167
599.51	0.165
599.96	0.170
600.41	0.169
600.86	0.173
601.31	0.175
601.76	0.177
602.21	0.177
602.65	0.180
603.10	0.180
603.55	0.182
604.00	0.184
604.45	0.186
604.90	0.189
605.35	0.190
605.80	0.188
606.25	0.191
606.70	0.194
607.15	0.194
607.60	0.196
608.05	0.197
608.50	0.199
608.95	0.201
609.39	0.202
609.84	0.202
610.29	0.203
610.74	0.206
611.19	0.204
611.64	0.209
612.09	0.208
612.54	0.209
612.99	0.211
613.44	0.210
613.88	0.213
614.33	0.209
614.78	0.211
615.23	0.212
615.68	0.214
616.13	0.215
616.58	0.216
617.03	0.213
617.47	0.215
617.92	0.217
618.37	0.219
618.82	0.219
619.27	0.219
619.72	0.218
620.17	0.221
620.61	0.222
621.06	0.220
621.51	0.221
621.96	0.222
622.41	0.226
622.86	0.223
623.30	0.225
623.75	0.225
624.20	0.227
624.65	0.229
625.10	0.228
625.54	0.229
625.99	0.232
626.44	0.232
626.89	0.230
627.34	0.234
627.78	0.234
628.23	0.236
628.68	0.236
629.13	0.236
629.58	0.238
630.02	0.240
630.47	0.241
630.92	0.244
631.37	0.244
631.81	0.246
632.26	0.247
632.71	0.249
633.16	0.250
633.61	0.251
634.05	0.254
634.50	0.255
634.95	0.257
635.40	0.261
635.84	0.264
636.29	0.263
636.74	0.263
637.18	0.267
637.63	0.270
638.08	0.270
638.53	0.274
638.97	0.276
639.42	0.280
639.87	0.279
640.32	0.285
640.76	0.288
641.21	0.289
641.66	0.292
642.10	0.296
642.55	0.295
643.00	0.300
643.44	0.303
643.89	0.305
644.34	0.309
644.79	0.310
645.23	0.313
645.68	0.316
646.13	0.318
646.57	0.321
647.02	0.324
647.47	0.327
647.91	0.329
648.36	0.335
648.81	0.335
649.25	0.338
649.70	0.340
650.15	0.342
650.59	0.346
651.04	0.348
651.48	0.351
651.93	0.353
652.38	0.356
652.82	0.356
653.27	0.360
653.72	0.360
654.16	0.363
654.61	0.364
655.06	0.370
655.50	0.369
655.95	0.372
656.39	0.372
656.84	0.376
657.29	0.374
657.73	0.376
658.18	0.379
658.62	0.382
659.07	0.383
659.52	0.383
659.96	0.386
660.41	0.385
660.85	0.382
661.30	0.387
661.74	0.388
662.19	0.389
662.64	0.389
663.08	0.388
663.53	0.392
663.97	0.390
664.42	0.389
664.86	0.392
665.31	0.388
665.75	0.390
666.20	0.387
666.65	0.387
667.09	0.386
667.54	0.383
667.98	0.382
668.43	0.380
668.87	0.377
669.32	0.378
669.76	0.372
670.21	0.369
670.65	0.365
671.10	0.363
671.54	0.356
671.99	0.351
672.43	0.347
672.88	0.345
673.32	0.339
673.77	0.333
674.21	0.329
674.66	0.323
675.10	0.316
675.55	0.312
675.99	0.307
676.44	0.301
676.88	0.293
677.33	0.286
677.77	0.277
678.22	0.274
678.66	0.266
679.11	0.255
679.55	0.249
679.99	0.245
680.44	0.236
680.88	0.228
681.33	0.224
681.77	0.216
682.22	0.209
682.66	0.200
683.11	0.194
683.55	0.187
683.99	0.183
684.44	0.176
684.88	0.170
685.33	0.162
685.77	0.156
686.21	0.152
686.66	0.145
687.10	0.140
687.55	0.134
687.99	0.131
688.44	0.124
688.88	0.120
689.32	0.116
689.77	0.109
690.21	0.107
690.65	0.104
691.10	0.097
691.54	0.096
691.99	0.091
692.43	0.087
692.87	0.083
693.32	0.081
693.76	0.079
694.20	0.076
694.65	0.073
695.09	0.073
695.53	0.070
695.98	0.066
696.42	0.064
696.86	0.062
697.31	0.061
697.75	0.057
698.19	0.057
698.64	0.055
699.08	0.052
699.52	0.051
699.97	0.051
700.41	0.051
700.85	0.046
701.30	0.047
701.74	0.043
702.18	0.042
702.63	0.039
703.07	0.043
703.51	0.039
703.96	0.040
704.40	0.041
704.84	0.038
705.28	0.039
705.73	0.034
706.17	0.034
706.61	0.034
707.06	0.033
707.50	0.033
707.94	0.033
708.38	0.031
708.83	0.032
709.27	0.029
709.71	0.031
710.15	0.031
710.60	0.032
711.04	0.031
711.48	0.029
711.92	0.030
712.37	0.029
712.81	0.029
713.25	0.027
713.69	0.027
714.13	0.024
714.58	0.028
715.02	0.024
715.46	0.026
715.90	0.026
716.35	0.024
716.79	0.026
717.23	0.026
717.67	0.027
718.11	0.023
718.56	0.025
719.00	0.024
719.44	0.025
719.88	0.028
720.32	0.026
720.76	0.023
721.21	0.026
721.65	0.026
722.09	0.026
722.53	0.028
722.97	0.026
723.41	0.026
723.86	0.025
724.30	0.024
724.74	0.026
725.18	0.027
725.62	0.027
726.06	0.026
726.50	0.025
726.95	0.026
727.39	0.027
727.83	0.028
728.27	0.024
728.71	0.024
729.15	0.029
729.59	0.028
730.03	0.027
730.48	0.027
730.92	0.026
731.36	0.026
731.80	0.028
732.24	0.028
732.68	0.029
733.12	0.028
733.56	0.026
734.00	0.028
734.44	0.029
734.89	0.029
735.33	0.030
735.77	0.029
736.21	0.028
736.65	0.030
737.09	0.027
737.53	0.028
737.97	0.032
738.41	0.029
738.85	0.030
739.29	0.026
739.73	0.030
740.17	0.031
740.61	0.030
741.05	0.030
741.49	0.028
741.93	0.030
742.37	0.030
742.81	0.029
743.26	0.027
743.70	0.029
744.14	0.031
744.58	0.030
745.02	0.030
745.46	0.028
745.90	0.030
746.34	0.028
746.78	0.029
747.22	0.031
747.66	0.026
748.10	0.028
748.54	0.031
748.98	0.027
749.42	0.030
749.86	0.029
750.29	0.030
750.73	0.031
751.17	0.026
751.61	0.030
752.05	0.030
752.49	0.027
752.93	0.030
753.37	0.029
753.81	0.030
754.25	0.029
754.69	0.029
755.13	0.031
755.57	0.028
756.01	0.030
756.45	0.028
756.89	0.029
757.33	0.032
757.77	0.026
758.21	0.028
758.64	0.031
759.08	0.031
759.52	0.029
759.96	0.031
760.40	0.029
760.84	0.029
761.28	0.030
761.72	0.027
762.16	0.028
762.60	0.028
763.03	0.030
763.47	0.026
763.91	0.028
764.35	0.026
764.79	0.031
765.23	0.029
765.67	0.027
766.11	0.027
766.54	0.028
766.98	0.028
767.42	0.027
767.86	0.031
768.30	0.031
768.74	0.028
769.17	0.032
769.61	0.032
770.05	0.026
770.49	0.026
770.93	0.027
771.37	0.027
771.80	0.028
772.24	0.030
772.68	0.027
773.12	0.027
773.56	0.029
774.00	0.030
774.43	0.030
774.87	0.029
775.31	0.030
775.75	0.028
776.19	0.028
776.62	0.030
777.06	0.027
777.50	0.030
777.94	0.031
778.37	0.027
778.81	0.030
779.25	0.031
779.69	0.030
780.13	0.027
780.56	0.026
781.00	0.031
781.44	0.031
781.88	0.029
782.31	0.032
782.75	0.031
783.19	0.029
783.63	0.030
784.06	0.024
784.50	0.031
784.94	0.031
785.37	0.030
785.81	0.027
786.25	0.026
786.69	0.028
787.12	0.026
787.56	0.027
788.00	0.023
788.43	0.027
788.87	0.026
789.31	0.028
789.75	0.030
790.18	0.024
790.62	0.030
791.06	0.032
791.49	0.029
791.93	0.027
792.37	0.027
792.80	0.026
793.24	0.029
793.68	0.027
794.11	0.029
794.55	0.027
794.99	0.026
795.42	0.027
795.86	0.026
796.30	0.029
796.73	0.030
797.17	0.032
797.61	0.025
798.04	0.025
798.48	0.027
798.91	0.029
799.35	0.028
799.79	0.027
800.22	0.029
800.66	0.024
801.10	0.030
801.53	0.028
801.97	0.025
802.40	0.030
802.84	0.031
803.28	0.027
803.71	0.025
804.15	0.030
804.58	0.028
805.02	0.025
805.46	0.026
805.89	0.025
806.33	0.029
806.76	0.028
807.20	0.029
807.63	0.029
808.07	0.026
808.51	0.022
808.94	0.027
809.38	0.028
809.81	0.023
810.25	0.025
810.68	0.028
811.12	0.029
811.55	0.026
811.99	0.029
812.42	0.028
812.86	0.028
813.29	0.027
813.73	0.028
814.17	0.030
814.60	0.027
815.04	0.026
815.47	0.026
815.91	0.031
816.34	0.029
816.78	0.027
817.21	0.024
817.65	0.029
818.08	0.031
818.52	0.022
818.95	0.030
819.39	0.029
819.82	0.030
820.25	0.032
820.69	0.028
821.12	0.024
821.56	0.027
821.99	0.026
822.43	0.032
822.86	0.026
823.30	0.024
823.73	0.022
824.17	0.031
824.60	0.026
825.04	0.029
825.47	0.029
825.90	0.033
826.34	0.026
826.77	0.030
827.21	0.028
827.64	0.026
828.08	0.029
828.51	0.028
828.94	0.030
829.38	0.034
829.81	0.034
830.25	0.032
830.68	0.032
831.11	0.038
831.55	0.033
831.98	0.037
832.42	0.032
832.85	0.031
833.28	0.031
833.72	0.037
834.15	0.040
834.58	0.035
835.02	0.029
835.45	0.035
835.88	0.033
836.32	0.036
836.75	0.032
837.19	0.034
837.62	0.036
838.05	0.038
838.49	0.037
838.92	0.035
839.35	0.034
839.79	0.035
840.22	0.034
840.65	0.034
841.09	0.042
841.52	0.037
841.95	0.036
842.39	0.038
842.82	0.038
843.25	0.036
843.68	0.039
844.12	0.035
844.55	0.041
844.98	0.032
845.42	0.034
845.85	0.043
846.28	0.038
846.71	0.036
847.15	0.037
847.58	0.043
848.01	0.034
848.45	0.036
848.88	0.039
849.31	0.042
849.74	0.040
850.18	0.032
850.61	0.036
851.04	0.035
851.47	0.035
851.91	0.043
852.34	0.040
852.77	0.040
853.20	0.038
853.64	0.039
854.07	0.037
854.50	0.040
854.93	0.040
855.36	0.040
855.80	0.042
856.23	0.038
856.66	0.044
857.09	0.037
857.52	0.036
857.96	0.036
858.39	0.039
858.82	0.035
859.25	0.035
859.68	0.041
860.12	0.041
860.55	0.038
860.98	0.036
861.41	0.038
861.84	0.037
862.27	0.037
862.71	0.044
863.14	0.043
863.57	0.037
864.00	0.042
864.43	0.032
864.86	0.039
865.30	0.041
865.73	0.038
866.16	0.043
866.59	0.043
867.02	0.038
867.45	0.043
867.88	0.043
868.31	0.042
868.75	0.040
869.18	0.047
869.61	0.037
870.04	0.045
870.47	0.042
870.90	0.045
871.33	0.045
871.76	0.040
872.19	0.041
872.62	0.046
873.06	0.046
873.49	0.046
873.92	0.051
874.35	0.041
874.78	0.044
875.21	0.045
875.64	0.053
876.07	0.043
876.50	0.047
876.93	0.046
877.36	0.047
877.79	0.047
878.22	0.043
878.65	0.052
879.08	0.049
879.51	0.045
879.94	0.046
880.37	0.047
880.80	0.049
881.23	0.048
881.67	0.044
882.10	0.043
882.53	0.045
882.96	0.043
883.39	0.046
883.82	0.047
884.25	0.056
884.68	0.050
885.11	0.051
885.54	0.053
885.97	0.045
886.39	0.055
886.82	0.049
887.25	0.050
887.68	0.047
888.11	0.052
888.54	0.052
888.97	0.052
889.40	0.047
889.83	0.057
890.26	0.056
890.69	0.056
891.12	0.050
891.55	0.048
891.98	0.047
892.41	0.051
892.84	0.052
893.27	0.048
893.70	0.052
894.13	0.056
894.56	0.058
894.98	0.049
895.41	0.052
895.84	0.057
896.27	0.052
896.70	0.051
897.13	0.055
897.56	0.062
897.99	0.057
898.42	0.053
898.85	0.061
899.27	0.057
899.70	0.056
900.13	0.061
900.56	0.060
900.99	0.058
901.42	0.053
901.85	0.060
902.28	0.054
902.70	0.060
903.13	0.053
903.56	0.056
903.99	0.056
904.42	0.057
904.85	0.052
905.27	0.057
905.70	0.056
906.13	0.060
906.56	0.058
906.99	0.061
907.42	0.056
907.84	0.059
908.27	0.059
908.70	0.062
909.13	0.057
909.56	0.053
909.98	0.059
910.41	0.053
910.84	0.054
911.27	0.058
911.70	0.057
912.12	0.054
912.55	0.055
912.98	0.055
913.41	0.060
913.84	0.055
914.26	0.055
914.69	0.061
915.12	0.058
915.55	0.057
915.97	0.062
916.40	0.056
916.83	0.056
917.26	0.054
917.68	0.061
918.11	0.056
918.54	0.059
918.97	0.055
919.39	0.060
919.82	0.055
920.25	0.060
920.67	0.062
921.10	0.056
921.53	0.060
921.96	0.060
922.38	0.061
922.81	0.065
923.24	0.065
923.66	0.063
924.09	0.062
924.52	0.064
924.94	0.064
925.37	0.064
925.80	0.065
926.22	0.069
926.65	0.071
927.08	0.064
927.50	0.068
927.93	0.068
928.36	0.067
928.78	0.072
929.21	0.077
929.64	0.078
930.06	0.075
930.49	0.078
930.92	0.073
931.34	0.077
931.77	0.078
932.20	0.074
932.62	0.081
933.05	0.084
933.47	0.082
933.90	0.087
934.33	0.083
934.75	0.081
935.18	0.082
935.61	0.088
936.03	0.088
936.46	0.087
936.88	0.094
937.31	0.097
937.73	0.101
938.16	0.092
938.59	0.102
939.01	0.099
939.44	0.101
939.86	0.096
940.29	0.100
940.71	0.107
941.14	0.110
941.57	0.106
941.99	0.113
942.42	0.116
942.84	0.113
943.27	0.108
943.69	0.122
944.12	0.134
944.54	0.127
944.97	0.122
945.39	0.129
945.82	0.127
946.24	0.136
946.67	0.132
947.09	0.138
947.52	0.130
947.94	0.133
948.37	0.138
948.79	0.144
949.22	0.148
949.64	0.143
950.07	0.153
950.49	0.153
950.92	0.158
951.34	0.159
951.77	0.167
952.19	0.159
952.62	0.163
953.04	0.167
953.47	0.171
953.89	0.174
954.32	0.179
954.74	0.182
955.17	0.175
955.59	0.184
956.01	0.189
956.44	0.194
956.86	0.193
957.29	0.197
957.71	0.201
958.14	0.199
958.56	0.200
958.98	0.211
959.41	0.215
959.83	0.208
960.26	0.208
960.68	0.208
961.10	0.222
961.53	0.218
961.95	0.222
962.38	0.224
962.80	0.220
963.22	0.214
963.65	0.220
964.07	0.221
964.50	0.223
964.92	0.225
965.34	0.216
965.77	0.225
966.19	0.220
966.61	0.221
967.04	0.216
967.46	0.226
967.88	0.227
968.31	0.225
968.73	0.230
969.15	0.229
969.58	0.222
970.00	0.227
970.42	0.227
970.85	0.230
971.27	0.226
971.69	0.234
972.12	0.231
972.54	0.238
972.96	0.229
973.39	0.231
973.81	0.235
974.23	0.232
974.65	0.231
975.08	0.229
975.50	0.225
975.92	0.236
976.35	0.235
976.77	0.230
977.19	0.232
977.61	0.235
978.04	0.243
978.46	0.241
978.88	0.234
979.30	0.230
979.73	0.233
980.15	0.236
980.57	0.234
980.99	0.226
981.42	0.231
981.84	0.239
982.26	0.230
982.68	0.234
983.11	0.228
983.53	0.231
983.95	0.235
984.37	0.235
984.79	0.236
985.22	0.233
985.64	0.231
986.06	0.226
986.48	0.219
986.90	0.221
987.33	0.232
987.75	0.226
988.17	0.224
988.59	0.224
989.01	0.223
989.43	0.227
989.86	0.226
990.28	0.226
990.70	0.224
991.12	0.220
991.54	0.218
991.96	0.224
992.39	0.219
992.81	0.221
993.23	0.220
993.65	0.214
994.07	0.213
994.49	0.211
994.91	0.222
995.34	0.210
995.76	0.208
996.18	0.212
996.60	0.213
997.02	0.208
997.44	0.210
997.86	0.216
998.28	0.201
998.70	0.214
999.12	0.205
999.55	0.213
999.97	0.205
1000.39	0.197
1000.81	0.209
1001.23	0.203
1001.65	0.208
1002.07	0.200
1002.49	0.210
1002.91	0.204
1003.33	0.197
1003.75	0.200
1004.17	0.198
1004.59	0.195
1005.01	0.201
1005.43	0.196
1005.85	0.192
1006.28	0.204
1006.70	0.193
1007.12	0.194
1007.54	0.192
1007.96	0.183
1008.38	0.196
1008.80	0.194
1009.22	0.187
1009.64	0.175
1010.06	0.190
1010.48	0.177
1010.90	0.178
1011.32	0.177
1011.74	0.175
1012.16	0.174
1012.58	0.166
1013.00	0.180
1013.42	0.172
1013.84	0.171
1014.26	0.164
1014.67	0.176
1015.09	0.175
1015.51	0.174
1015.93	0.183
1016.35	0.183
1016.77	0.172
1017.19	0.174
1017.61	0.178
1018.03	0.182
1018.45	0.168
1018.87	0.168
1019.29	0.166
1019.71	0.162
1020.13	0.154
1020.55	0.158
1020.97	0.156
1021.38	0.146
1021.80	0.162
1022.22	0.168
1022.64	0.146
1023.06	0.144
1023.48	0.150
1023.90	0.155
1024.32	0.146
1024.74	0.149
1025.15	0.152
1025.57	0.143
1025.99	0.151
1026.41	0.152
1026.83	0.151
1027.25	0.141
1027.67	0.129
1028.08	0.150
1028.50	0.150
1028.92	0.141
1029.34	0.146
1029.76	0.138
1030.18	0.129
1030.60	0.123
1031.01	0.134
1031.43	0.140
1031.85	0.130
1032.27	0.141
1032.69	0.132
1033.10	0.128
1033.52	0.124
1033.94	0.135
1034.36	0.146
1034.78	0.124
1035.19	0.108
1035.61	0.112
1036.03	0.116
1036.45	0.124
1036.87	0.119
1037.28	0.125
1037.70	0.123
1038.12	0.114
1038.54	0.120
1038.95	0.117
1039.37	0.127
1039.79	0.103
1040.21	0.112
1040.62	0.129
1041.04	0.104
1041.46	0.100
1041.88	0.117
1042.29	0.101
1042.71	0.109
1043.13	0.092
1043.55	0.110
1043.96	0.111
1044.38	0.104
1044.80	0.098
1045.21	0.121
1045.63	0.109
1046.05	0.094
1046.47	0.115
1046.88	0.107
1047.30	0.094
1047.72	0.115
1048.13	0.105
1048.55	0.093
1048.97	0.117
1049.38	0.083
1049.80	0.107
1050.22	0.077
1050.63	0.095
1051.05	0.113
1051.47	0.072
1051.88	0.097
1052.30	0.071
1052.72	0.105
1053.13	0.097
1053.55	0.106
1053.97	0.122
1054.38	0.092
1054.80	0.080
1055.21	0.102
1055.63	0.098
1056.05	0.099
1056.46	0.106
1056.88	0.101
1057.29	0.092
1057.71	0.086
1058.13	0.116
1058.54	0.125
1058.96	0.090
1059.37	0.120
1059.79	0.063
1060.21	0.059
1060.62	0.063
1061.04	0.103
1061.45	0.107
1061.87	0.129
1062.28	0.102
1062.70	0.102
1063.12	0.106
1063.53	0.102
1063.95	0.099
1064.36	0.090
1064.78	0.126
1065.19	0.072
1065.61	0.107
1066.02	0.092
1066.44	0.116
1066.85	0.091
1067.27	0.198
1067.68	0.125
1068.10	0.059
1068.51	0.162
1068.93	0.088
1069.35	0.202
1069.76	0.070
1070.17	0.109
1070.59	0.148
1071.00	0.066
1071.42	0.024
1071.83	0.157
1072.25	0.158
1072.66	0.144
1073.08	0.057
1073.49	0.136
1073.91	0.151
1074.32	0.137
1074.74	0.121
1075.15	0.382
1075.57	0.147
1075.98	0.105
1076.40	0.052
1076.81	0.031
1077.22	0.123
1077.64	0.174
1078.05	0.116
1078.47	-0.005
1078.88	0.063
1079.30	0.096
1079.71	0.275
1080.12	0.313
1080.54	0.119
1080.95	0.206
1081.37	0.213
1081.78	0.113
1082.19	0.074
1082.61	0.120
1083.02	0.062
1083.44	0.090
1083.85	0.187
1084.26	0.450
1084.68	0.056
1085.09	0.127
1085.50	0.257
1085.92	1.008
1086.33	0.108
1086.74	0.337
1087.16	0.221
1087.57	0.249
1087.98	-0.021
1088.40	0.133
1088.81	0.688
1089.22	0.069
1089.64	0.216
1090.05	0.444
1090.46	0.319
1090.88	0.348
1091.29	0.368
1091.70	0.510
1092.12	0.022
1092.53	0.175
1092.94	0.080
1093.36	-0.044
1093.77	0.486
1094.18	0.144
1094.59	0.172
1095.01	0.473
1095.42	0.085
1095.83	1.223
1096.25	0.343
1096.66	0.575
1097.07	0.182
1097.48	0.167
1097.90	0.296
1098.31	0.641
1098.72	-0.155
1099.13	0.384
>>>>>End Processed Spectral Data<<<<<
