SpectraSuite Data File
++++++++++++++++++++++++++++++++++++
Date: Tue Jul 11 15:37:32 CEST 2017
User: IPCE
Dark Spectrum Present: Yes
Reference Spectrum Present: Yes
Number of Sampled Component Spectra: 1
Spectrometers: HR+C0708
Integration Time (usec): 1000 (HR+C0708)
Spectra Averaged: 10 (HR+C0708)
Boxcar Smoothing: 0 (HR+C0708)
Correct for Electrical Dark: No (HR+C0708)
Strobe/Lamp Enabled: No (HR+C0708)
Correct for Detector Non-linearity: No (HR+C0708)
Correct for Stray Light: No (HR+C0708)
Number of Pixels in Processed Spectrum: 2048
>>>>>Begin Processed Spectral Data<<<<<
188.76	0.297
189.23	0.022
189.70	0.349
190.17	0.244
190.64	-0.000
191.12	0.304
191.59	0.510
192.06	-0.074
192.53	0.081
193.01	0.507
193.48	-0.000
193.95	0.416
194.42	0.477
194.90	0.585
195.37	-0.052
195.84	0.043
196.31	0.480
196.78	0.201
197.26	0.046
197.73	0.186
198.20	0.286
198.67	0.095
199.14	0.222
199.62	0.130
200.09	1.000
200.56	0.332
201.03	0.216
201.50	0.349
201.97	0.317
202.45	0.525
202.92	0.391
203.39	0.318
203.86	0.436
204.33	0.474
204.80	0.553
205.28	0.577
205.75	0.374
206.22	0.535
206.69	0.899
207.16	0.220
207.63	0.402
208.11	0.392
208.58	0.376
209.05	0.435
209.52	0.645
209.99	0.358
210.46	0.415
210.93	0.392
211.41	0.425
211.88	0.408
212.35	0.367
212.82	0.366
213.29	0.316
213.76	0.495
214.23	0.461
214.70	0.433
215.18	0.390
215.65	0.381
216.12	0.323
216.59	0.372
217.06	0.635
217.53	0.437
218.00	0.420
218.47	0.598
218.94	0.330
219.41	0.441
219.89	0.567
220.36	0.856
220.83	0.691
221.30	0.440
221.77	0.535
222.24	0.627
222.71	1.048
223.18	0.540
223.65	0.476
224.12	0.545
224.59	0.598
225.06	0.647
225.54	0.563
226.01	0.845
226.48	0.916
226.95	0.736
227.42	0.975
227.89	0.788
228.36	0.899
228.83	1.115
229.30	1.018
229.77	1.064
230.24	1.253
230.71	1.208
231.18	1.189
231.65	1.546
232.12	1.480
232.59	1.504
233.06	1.469
233.53	1.457
234.00	1.529
234.47	1.526
234.94	1.696
235.41	1.767
235.88	2.054
236.35	1.738
236.82	1.920
237.29	1.749
237.76	1.832
238.23	1.916
238.70	1.931
239.17	2.024
239.64	2.041
240.11	2.034
240.58	2.057
241.05	2.250
241.52	2.023
241.99	2.217
242.46	2.045
242.93	2.180
243.40	2.289
243.87	2.235
244.34	2.273
244.81	2.219
245.28	2.137
245.75	2.319
246.22	2.387
246.69	2.256
247.16	2.432
247.63	2.461
248.10	2.515
248.57	2.335
249.04	2.224
249.51	2.387
249.98	2.227
250.45	2.541
250.92	2.408
251.39	2.394
251.85	2.268
252.32	2.306
252.79	2.260
253.26	2.361
253.73	2.370
254.20	2.148
254.67	2.154
255.14	2.077
255.61	2.059
256.08	2.124
256.55	1.966
257.02	1.974
257.49	1.991
257.95	1.929
258.42	1.931
258.89	1.867
259.36	1.862
259.83	1.852
260.30	1.805
260.77	1.784
261.24	1.758
261.71	1.738
262.17	1.725
262.64	1.733
263.11	1.690
263.58	1.699
264.05	1.679
264.52	1.626
264.99	1.637
265.46	1.630
265.92	1.604
266.39	1.599
266.86	1.570
267.33	1.557
267.80	1.555
268.27	1.514
268.74	1.516
269.20	1.527
269.67	1.506
270.14	1.496
270.61	1.488
271.08	1.467
271.55	1.462
272.01	1.423
272.48	1.425
272.95	1.428
273.42	1.409
273.89	1.395
274.36	1.389
274.82	1.393
275.29	1.372
275.76	1.365
276.23	1.366
276.70	1.350
277.16	1.343
277.63	1.345
278.10	1.340
278.57	1.323
279.04	1.328
279.50	1.325
279.97	1.325
280.44	1.324
280.91	1.313
281.38	1.299
281.84	1.307
282.31	1.299
282.78	1.295
283.25	1.290
283.72	1.284
284.18	1.278
284.65	1.277
285.12	1.279
285.59	1.276
286.05	1.271
286.52	1.267
286.99	1.271
287.46	1.269
287.92	1.267
288.39	1.262
288.86	1.260
289.33	1.266
289.79	1.255
290.26	1.263
290.73	1.257
291.20	1.253
291.66	1.239
292.13	1.241
292.60	1.230
293.07	1.228
293.53	1.226
294.00	1.212
294.47	1.204
294.93	1.203
295.40	1.190
295.87	1.189
296.34	1.177
296.80	1.162
297.27	1.157
297.74	1.145
298.20	1.138
298.67	1.128
299.14	1.124
299.60	1.116
300.07	1.108
300.54	1.085
301.01	1.080
301.47	1.067
301.94	1.061
302.41	1.050
302.87	1.044
303.34	1.029
303.81	1.027
304.27	1.019
304.74	1.008
305.21	1.005
305.67	0.993
306.14	0.988
306.61	0.980
307.07	0.969
307.54	0.955
308.01	0.952
308.47	0.943
308.94	0.941
309.40	0.935
309.87	0.930
310.34	0.927
310.80	0.922
311.27	0.917
311.74	0.909
312.20	0.906
312.67	0.901
313.13	0.897
313.60	0.893
314.07	0.887
314.53	0.877
315.00	0.874
315.47	0.877
315.93	0.869
316.40	0.870
316.86	0.865
317.33	0.860
317.80	0.858
318.26	0.851
318.73	0.851
319.19	0.849
319.66	0.846
320.13	0.841
320.59	0.837
321.06	0.829
321.52	0.829
321.99	0.829
322.45	0.824
322.92	0.819
323.39	0.812
323.85	0.811
324.32	0.811
324.78	0.802
325.25	0.795
325.71	0.796
326.18	0.788
326.64	0.791
327.11	0.786
327.58	0.785
328.04	0.778
328.51	0.772
328.97	0.771
329.44	0.766
329.90	0.763
330.37	0.757
330.83	0.759
331.30	0.751
331.76	0.743
332.23	0.742
332.69	0.740
333.16	0.737
333.62	0.731
334.09	0.724
334.56	0.723
335.02	0.722
335.49	0.713
335.95	0.710
336.42	0.703
336.88	0.698
337.35	0.700
337.81	0.693
338.28	0.694
338.74	0.693
339.20	0.692
339.67	0.695
340.13	0.692
340.60	0.690
341.06	0.685
341.53	0.682
341.99	0.685
342.46	0.678
342.92	0.677
343.39	0.678
343.85	0.671
344.32	0.669
344.78	0.673
345.25	0.670
345.71	0.669
346.17	0.669
346.64	0.666
347.10	0.660
347.57	0.656
348.03	0.649
348.50	0.645
348.96	0.641
349.43	0.644
349.89	0.628
350.35	0.627
350.82	0.621
351.28	0.618
351.75	0.611
352.21	0.603
352.67	0.595
353.14	0.587
353.60	0.573
354.07	0.569
354.53	0.554
355.00	0.552
355.46	0.535
355.92	0.521
356.39	0.519
356.85	0.502
357.31	0.487
357.78	0.478
358.24	0.463
358.71	0.448
359.17	0.432
359.63	0.416
360.10	0.398
360.56	0.382
361.03	0.365
361.49	0.344
361.95	0.324
362.42	0.305
362.88	0.286
363.34	0.266
363.81	0.247
364.27	0.234
364.73	0.218
365.20	0.200
365.66	0.189
366.12	0.175
366.59	0.165
367.05	0.156
367.51	0.145
367.98	0.138
368.44	0.134
368.90	0.128
369.37	0.124
369.83	0.119
370.29	0.117
370.76	0.114
371.22	0.110
371.68	0.109
372.15	0.103
372.61	0.105
373.07	0.102
373.54	0.105
374.00	0.097
374.46	0.102
374.92	0.097
375.39	0.096
375.85	0.097
376.31	0.096
376.78	0.093
377.24	0.093
377.70	0.095
378.16	0.094
378.63	0.090
379.09	0.091
379.55	0.092
380.01	0.088
380.48	0.089
380.94	0.091
381.40	0.089
381.87	0.086
382.33	0.088
382.79	0.085
383.25	0.086
383.72	0.087
384.18	0.086
384.64	0.083
385.10	0.083
385.56	0.085
386.03	0.083
386.49	0.084
386.95	0.082
387.41	0.082
387.88	0.081
388.34	0.083
388.80	0.082
389.26	0.080
389.72	0.081
390.19	0.081
390.65	0.078
391.11	0.080
391.57	0.079
392.04	0.079
392.50	0.077
392.96	0.079
393.42	0.078
393.88	0.080
394.34	0.078
394.81	0.078
395.27	0.074
395.73	0.074
396.19	0.076
396.65	0.076
397.12	0.076
397.58	0.073
398.04	0.075
398.50	0.074
398.96	0.074
399.42	0.072
399.89	0.074
400.35	0.072
400.81	0.074
401.27	0.079
401.73	0.073
402.19	0.072
402.65	0.071
403.12	0.069
403.58	0.071
404.04	0.068
404.50	0.069
404.96	0.068
405.42	0.068
405.88	0.068
406.34	0.070
406.81	0.067
407.27	0.068
407.73	0.068
408.19	0.065
408.65	0.065
409.11	0.067
409.57	0.067
410.03	0.066
410.49	0.066
410.96	0.062
411.42	0.066
411.88	0.064
412.34	0.061
412.80	0.063
413.26	0.064
413.72	0.062
414.18	0.065
414.64	0.060
415.10	0.061
415.56	0.062
416.02	0.058
416.48	0.059
416.95	0.061
417.41	0.061
417.87	0.057
418.33	0.060
418.79	0.062
419.25	0.061
419.71	0.060
420.17	0.061
420.63	0.058
421.09	0.059
421.55	0.059
422.01	0.056
422.47	0.059
422.93	0.059
423.39	0.059
423.85	0.061
424.31	0.058
424.77	0.057
425.23	0.056
425.69	0.058
426.15	0.059
426.61	0.059
427.07	0.057
427.53	0.059
427.99	0.060
428.45	0.060
428.91	0.056
429.37	0.060
429.83	0.058
430.29	0.060
430.75	0.056
431.21	0.055
431.67	0.058
432.13	0.053
432.59	0.055
433.05	0.056
433.51	0.059
433.97	0.058
434.43	0.056
434.89	0.053
435.35	0.056
435.81	0.053
436.27	0.051
436.73	0.055
437.19	0.055
437.65	0.051
438.11	0.056
438.57	0.058
439.03	0.054
439.48	0.052
439.94	0.052
440.40	0.053
440.86	0.053
441.32	0.054
441.78	0.054
442.24	0.051
442.70	0.055
443.16	0.053
443.62	0.050
444.08	0.055
444.54	0.053
444.99	0.055
445.45	0.054
445.91	0.052
446.37	0.053
446.83	0.050
447.29	0.050
447.75	0.050
448.21	0.054
448.67	0.052
449.12	0.049
449.58	0.048
450.04	0.051
450.50	0.049
450.96	0.050
451.42	0.052
451.88	0.052
452.34	0.051
452.79	0.048
453.25	0.055
453.71	0.050
454.17	0.050
454.63	0.051
455.09	0.049
455.55	0.051
456.00	0.049
456.46	0.050
456.92	0.051
457.38	0.052
457.84	0.049
458.30	0.050
458.75	0.051
459.21	0.050
459.67	0.051
460.13	0.050
460.59	0.052
461.04	0.047
461.50	0.051
461.96	0.048
462.42	0.052
462.88	0.049
463.33	0.050
463.79	0.050
464.25	0.047
464.71	0.052
465.17	0.050
465.62	0.051
466.08	0.050
466.54	0.050
467.00	0.050
467.46	0.051
467.91	0.052
468.37	0.050
468.83	0.051
469.29	0.050
469.74	0.050
470.20	0.052
470.66	0.050
471.12	0.049
471.57	0.050
472.03	0.052
472.49	0.051
472.95	0.050
473.40	0.051
473.86	0.049
474.32	0.050
474.78	0.049
475.23	0.049
475.69	0.050
476.15	0.052
476.60	0.050
477.06	0.048
477.52	0.049
477.98	0.050
478.43	0.050
478.89	0.053
479.35	0.049
479.80	0.052
480.26	0.048
480.72	0.050
481.18	0.049
481.63	0.049
482.09	0.050
482.55	0.051
483.00	0.050
483.46	0.051
483.92	0.049
484.37	0.051
484.83	0.049
485.29	0.051
485.74	0.051
486.20	0.051
486.66	0.050
487.11	0.052
487.57	0.052
488.03	0.051
488.48	0.051
488.94	0.051
489.40	0.050
489.85	0.048
490.31	0.050
490.77	0.051
491.22	0.049
491.68	0.051
492.13	0.051
492.59	0.051
493.05	0.051
493.50	0.049
493.96	0.049
494.42	0.049
494.87	0.050
495.33	0.050
495.78	0.049
496.24	0.049
496.70	0.051
497.15	0.050
497.61	0.050
498.06	0.052
498.52	0.050
498.98	0.050
499.43	0.050
499.89	0.049
500.34	0.049
500.80	0.050
501.25	0.050
501.71	0.050
502.17	0.050
502.62	0.049
503.08	0.048
503.53	0.049
503.99	0.050
504.44	0.050
504.90	0.048
505.36	0.047
505.81	0.048
506.27	0.048
506.72	0.049
507.18	0.050
507.63	0.049
508.09	0.051
508.54	0.050
509.00	0.050
509.45	0.049
509.91	0.050
510.36	0.049
510.82	0.051
511.27	0.047
511.73	0.046
512.19	0.045
512.64	0.050
513.10	0.047
513.55	0.048
514.01	0.047
514.46	0.047
514.92	0.047
515.37	0.047
515.83	0.045
516.28	0.049
516.73	0.047
517.19	0.047
517.64	0.047
518.10	0.048
518.55	0.048
519.01	0.047
519.46	0.047
519.92	0.047
520.37	0.047
520.83	0.049
521.28	0.049
521.74	0.046
522.19	0.047
522.65	0.046
523.10	0.049
523.55	0.046
524.01	0.047
524.46	0.048
524.92	0.048
525.37	0.048
525.83	0.048
526.28	0.047
526.73	0.048
527.19	0.050
527.64	0.050
528.10	0.047
528.55	0.047
529.01	0.047
529.46	0.051
529.91	0.047
530.37	0.047
530.82	0.048
531.28	0.049
531.73	0.049
532.18	0.052
532.64	0.049
533.09	0.050
533.54	0.048
534.00	0.047
534.45	0.052
534.91	0.048
535.36	0.049
535.81	0.050
536.27	0.053
536.72	0.049
537.17	0.053
537.63	0.053
538.08	0.054
538.54	0.052
538.99	0.051
539.44	0.055
539.90	0.054
540.35	0.052
540.80	0.053
541.26	0.052
541.71	0.052
542.16	0.054
542.62	0.055
543.07	0.056
543.52	0.054
543.98	0.055
544.43	0.055
544.88	0.054
545.34	0.057
545.79	0.057
546.24	0.059
546.69	0.055
547.15	0.056
547.60	0.060
548.05	0.058
548.51	0.058
548.96	0.058
549.41	0.060
549.86	0.060
550.32	0.060
550.77	0.061
551.22	0.062
551.68	0.060
552.13	0.061
552.58	0.064
553.03	0.062
553.49	0.064
553.94	0.062
554.39	0.064
554.84	0.068
555.30	0.067
555.75	0.066
556.20	0.068
556.65	0.067
557.11	0.068
557.56	0.068
558.01	0.070
558.46	0.070
558.92	0.071
559.37	0.071
559.82	0.072
560.27	0.073
560.72	0.072
561.18	0.072
561.63	0.074
562.08	0.075
562.53	0.074
562.99	0.074
563.44	0.075
563.89	0.077
564.34	0.076
564.79	0.078
565.25	0.079
565.70	0.079
566.15	0.082
566.60	0.080
567.05	0.083
567.50	0.083
567.96	0.085
568.41	0.087
568.86	0.084
569.31	0.087
569.76	0.087
570.21	0.087
570.67	0.087
571.12	0.086
571.57	0.089
572.02	0.090
572.47	0.092
572.92	0.092
573.37	0.091
573.83	0.094
574.28	0.094
574.73	0.094
575.18	0.096
575.63	0.098
576.08	0.095
576.53	0.098
576.98	0.098
577.44	0.099
577.89	0.099
578.34	0.102
578.79	0.104
579.24	0.103
579.69	0.105
580.14	0.108
580.59	0.109
581.04	0.110
581.49	0.111
581.95	0.113
582.40	0.113
582.85	0.115
583.30	0.115
583.75	0.117
584.20	0.120
584.65	0.119
585.10	0.119
585.55	0.122
586.00	0.124
586.45	0.126
586.90	0.126
587.35	0.126
587.80	0.130
588.25	0.131
588.71	0.131
589.16	0.135
589.61	0.137
590.06	0.138
590.51	0.141
590.96	0.142
591.41	0.145
591.86	0.147
592.31	0.148
592.76	0.149
593.21	0.152
593.66	0.153
594.11	0.155
594.56	0.156
595.01	0.160
595.46	0.160
595.91	0.162
596.36	0.166
596.81	0.168
597.26	0.168
597.71	0.172
598.16	0.173
598.61	0.176
599.06	0.177
599.51	0.177
599.96	0.181
600.41	0.180
600.86	0.185
601.31	0.186
601.76	0.188
602.21	0.189
602.65	0.192
603.10	0.194
603.55	0.197
604.00	0.198
604.45	0.199
604.90	0.202
605.35	0.204
605.80	0.204
606.25	0.204
606.70	0.208
607.15	0.210
607.60	0.211
608.05	0.212
608.50	0.214
608.95	0.216
609.39	0.218
609.84	0.219
610.29	0.219
610.74	0.220
611.19	0.220
611.64	0.223
612.09	0.225
612.54	0.226
612.99	0.228
613.44	0.225
613.88	0.231
614.33	0.229
614.78	0.230
615.23	0.232
615.68	0.231
616.13	0.233
616.58	0.231
617.03	0.231
617.47	0.234
617.92	0.234
618.37	0.237
618.82	0.236
619.27	0.236
619.72	0.238
620.17	0.235
620.61	0.236
621.06	0.241
621.51	0.241
621.96	0.239
622.41	0.242
622.86	0.240
623.30	0.243
623.75	0.241
624.20	0.244
624.65	0.245
625.10	0.244
625.54	0.247
625.99	0.248
626.44	0.247
626.89	0.249
627.34	0.251
627.78	0.252
628.23	0.252
628.68	0.254
629.13	0.255
629.58	0.253
630.02	0.257
630.47	0.257
630.92	0.260
631.37	0.263
631.81	0.264
632.26	0.266
632.71	0.267
633.16	0.270
633.61	0.272
634.05	0.274
634.50	0.274
634.95	0.276
635.40	0.277
635.84	0.283
636.29	0.282
636.74	0.286
637.18	0.289
637.63	0.290
638.08	0.292
638.53	0.295
638.97	0.299
639.42	0.303
639.87	0.307
640.32	0.308
640.76	0.310
641.21	0.313
641.66	0.316
642.10	0.319
642.55	0.321
643.00	0.324
643.44	0.328
643.89	0.333
644.34	0.334
644.79	0.339
645.23	0.339
645.68	0.342
646.13	0.348
646.57	0.351
647.02	0.355
647.47	0.356
647.91	0.360
648.36	0.364
648.81	0.368
649.25	0.370
649.70	0.375
650.15	0.380
650.59	0.381
651.04	0.383
651.48	0.384
651.93	0.389
652.38	0.393
652.82	0.394
653.27	0.397
653.72	0.402
654.16	0.403
654.61	0.407
655.06	0.412
655.50	0.411
655.95	0.411
656.39	0.415
656.84	0.415
657.29	0.418
657.73	0.423
658.18	0.426
658.62	0.426
659.07	0.429
659.52	0.429
659.96	0.433
660.41	0.432
660.85	0.434
661.30	0.438
661.74	0.438
662.19	0.443
662.64	0.437
663.08	0.440
663.53	0.444
663.97	0.444
664.42	0.444
664.86	0.443
665.31	0.444
665.75	0.441
666.20	0.444
666.65	0.441
667.09	0.439
667.54	0.439
667.98	0.438
668.43	0.433
668.87	0.433
669.32	0.432
669.76	0.427
670.21	0.425
670.65	0.421
671.10	0.418
671.54	0.413
671.99	0.409
672.43	0.400
672.88	0.396
673.32	0.392
673.77	0.382
674.21	0.381
674.66	0.374
675.10	0.367
675.55	0.358
675.99	0.351
676.44	0.346
676.88	0.335
677.33	0.328
677.77	0.320
678.22	0.312
678.66	0.304
679.11	0.295
679.55	0.287
679.99	0.281
680.44	0.270
680.88	0.264
681.33	0.257
681.77	0.248
682.22	0.241
682.66	0.231
683.11	0.223
683.55	0.217
683.99	0.209
684.44	0.201
684.88	0.195
685.33	0.185
685.77	0.180
686.21	0.174
686.66	0.166
687.10	0.159
687.55	0.153
687.99	0.151
688.44	0.143
688.88	0.138
689.32	0.131
689.77	0.124
690.21	0.121
690.65	0.117
691.10	0.109
691.54	0.107
691.99	0.104
692.43	0.099
692.87	0.095
693.32	0.092
693.76	0.089
694.20	0.086
694.65	0.084
695.09	0.080
695.53	0.079
695.98	0.074
696.42	0.070
696.86	0.068
697.31	0.065
697.75	0.063
698.19	0.063
698.64	0.062
699.08	0.059
699.52	0.056
699.97	0.055
700.41	0.055
700.85	0.051
701.30	0.049
701.74	0.044
702.18	0.048
702.63	0.046
703.07	0.045
703.51	0.041
703.96	0.042
704.40	0.041
704.84	0.041
705.28	0.042
705.73	0.037
706.17	0.038
706.61	0.035
707.06	0.037
707.50	0.037
707.94	0.035
708.38	0.034
708.83	0.034
709.27	0.032
709.71	0.032
710.15	0.031
710.60	0.032
711.04	0.031
711.48	0.030
711.92	0.034
712.37	0.031
712.81	0.031
713.25	0.029
713.69	0.029
714.13	0.026
714.58	0.028
715.02	0.026
715.46	0.026
715.90	0.028
716.35	0.027
716.79	0.027
717.23	0.026
717.67	0.027
718.11	0.026
718.56	0.026
719.00	0.026
719.44	0.027
719.88	0.028
720.32	0.027
720.76	0.025
721.21	0.029
721.65	0.028
722.09	0.027
722.53	0.028
722.97	0.028
723.41	0.027
723.86	0.024
724.30	0.024
724.74	0.025
725.18	0.026
725.62	0.028
726.06	0.024
726.50	0.024
726.95	0.027
727.39	0.028
727.83	0.027
728.27	0.027
728.71	0.025
729.15	0.026
729.59	0.028
730.03	0.027
730.48	0.027
730.92	0.027
731.36	0.027
731.80	0.028
732.24	0.028
732.68	0.029
733.12	0.027
733.56	0.027
734.00	0.029
734.44	0.030
734.89	0.028
735.33	0.029
735.77	0.030
736.21	0.030
736.65	0.031
737.09	0.026
737.53	0.029
737.97	0.032
738.41	0.031
738.85	0.029
739.29	0.028
739.73	0.028
740.17	0.030
740.61	0.031
741.05	0.030
741.49	0.028
741.93	0.029
742.37	0.031
742.81	0.029
743.26	0.032
743.70	0.029
744.14	0.030
744.58	0.032
745.02	0.031
745.46	0.028
745.90	0.031
746.34	0.031
746.78	0.030
747.22	0.031
747.66	0.027
748.10	0.030
748.54	0.028
748.98	0.028
749.42	0.030
749.86	0.031
750.29	0.031
750.73	0.030
751.17	0.029
751.61	0.030
752.05	0.029
752.49	0.028
752.93	0.030
753.37	0.030
753.81	0.031
754.25	0.027
754.69	0.029
755.13	0.030
755.57	0.030
756.01	0.030
756.45	0.025
756.89	0.028
757.33	0.032
757.77	0.030
758.21	0.031
758.64	0.033
759.08	0.030
759.52	0.031
759.96	0.032
760.40	0.029
760.84	0.029
761.28	0.031
761.72	0.027
762.16	0.030
762.60	0.027
763.03	0.029
763.47	0.028
763.91	0.025
764.35	0.026
764.79	0.032
765.23	0.028
765.67	0.027
766.11	0.029
766.54	0.028
766.98	0.029
767.42	0.028
767.86	0.030
768.30	0.031
768.74	0.030
769.17	0.032
769.61	0.030
770.05	0.028
770.49	0.027
770.93	0.027
771.37	0.030
771.80	0.029
772.24	0.030
772.68	0.030
773.12	0.025
773.56	0.030
774.00	0.030
774.43	0.030
774.87	0.027
775.31	0.030
775.75	0.027
776.19	0.027
776.62	0.030
777.06	0.027
777.50	0.029
777.94	0.031
778.37	0.028
778.81	0.030
779.25	0.031
779.69	0.027
780.13	0.029
780.56	0.029
781.00	0.031
781.44	0.031
781.88	0.031
782.31	0.030
782.75	0.029
783.19	0.028
783.63	0.032
784.06	0.027
784.50	0.030
784.94	0.029
785.37	0.028
785.81	0.028
786.25	0.026
786.69	0.030
787.12	0.030
787.56	0.031
788.00	0.024
788.43	0.026
788.87	0.029
789.31	0.028
789.75	0.029
790.18	0.027
790.62	0.028
791.06	0.031
791.49	0.031
791.93	0.029
792.37	0.024
792.80	0.027
793.24	0.031
793.68	0.028
794.11	0.029
794.55	0.025
794.99	0.029
795.42	0.027
795.86	0.028
796.30	0.028
796.73	0.028
797.17	0.030
797.61	0.026
798.04	0.024
798.48	0.026
798.91	0.026
799.35	0.029
799.79	0.028
800.22	0.027
800.66	0.027
801.10	0.029
801.53	0.025
801.97	0.030
802.40	0.029
802.84	0.029
803.28	0.027
803.71	0.025
804.15	0.026
804.58	0.025
805.02	0.023
805.46	0.027
805.89	0.028
806.33	0.026
806.76	0.024
807.20	0.029
807.63	0.027
808.07	0.030
808.51	0.024
808.94	0.027
809.38	0.030
809.81	0.027
810.25	0.030
810.68	0.032
811.12	0.023
811.55	0.029
811.99	0.027
812.42	0.028
812.86	0.028
813.29	0.022
813.73	0.028
814.17	0.028
814.60	0.026
815.04	0.027
815.47	0.032
815.91	0.029
816.34	0.027
816.78	0.029
817.21	0.024
817.65	0.029
818.08	0.035
818.52	0.023
818.95	0.028
819.39	0.033
819.82	0.033
820.25	0.035
820.69	0.026
821.12	0.026
821.56	0.029
821.99	0.026
822.43	0.033
822.86	0.030
823.30	0.031
823.73	0.024
824.17	0.030
824.60	0.026
825.04	0.031
825.47	0.032
825.90	0.033
826.34	0.028
826.77	0.029
827.21	0.029
827.64	0.030
828.08	0.035
828.51	0.036
828.94	0.032
829.38	0.032
829.81	0.033
830.25	0.030
830.68	0.035
831.11	0.033
831.55	0.037
831.98	0.037
832.42	0.037
832.85	0.033
833.28	0.036
833.72	0.037
834.15	0.038
834.58	0.036
835.02	0.033
835.45	0.032
835.88	0.035
836.32	0.037
836.75	0.035
837.19	0.033
837.62	0.037
838.05	0.041
838.49	0.037
838.92	0.033
839.35	0.039
839.79	0.033
840.22	0.035
840.65	0.038
841.09	0.037
841.52	0.038
841.95	0.037
842.39	0.039
842.82	0.033
843.25	0.033
843.68	0.036
844.12	0.032
844.55	0.038
844.98	0.034
845.42	0.035
845.85	0.039
846.28	0.043
846.71	0.040
847.15	0.035
847.58	0.043
848.01	0.032
848.45	0.039
848.88	0.035
849.31	0.037
849.74	0.037
850.18	0.038
850.61	0.040
851.04	0.040
851.47	0.041
851.91	0.041
852.34	0.042
852.77	0.040
853.20	0.037
853.64	0.039
854.07	0.042
854.50	0.040
854.93	0.039
855.36	0.041
855.80	0.039
856.23	0.046
856.66	0.036
857.09	0.039
857.52	0.042
857.96	0.040
858.39	0.044
858.82	0.045
859.25	0.042
859.68	0.040
860.12	0.041
860.55	0.039
860.98	0.037
861.41	0.037
861.84	0.042
862.27	0.047
862.71	0.040
863.14	0.044
863.57	0.041
864.00	0.045
864.43	0.040
864.86	0.037
865.30	0.045
865.73	0.043
866.16	0.041
866.59	0.038
867.02	0.041
867.45	0.041
867.88	0.041
868.31	0.039
868.75	0.039
869.18	0.045
869.61	0.043
870.04	0.045
870.47	0.043
870.90	0.043
871.33	0.041
871.76	0.049
872.19	0.041
872.62	0.043
873.06	0.047
873.49	0.050
873.92	0.050
874.35	0.039
874.78	0.043
875.21	0.051
875.64	0.044
876.07	0.044
876.50	0.048
876.93	0.041
877.36	0.051
877.79	0.051
878.22	0.046
878.65	0.047
879.08	0.047
879.51	0.045
879.94	0.039
880.37	0.047
880.80	0.047
881.23	0.049
881.67	0.046
882.10	0.045
882.53	0.048
882.96	0.045
883.39	0.048
883.82	0.050
884.25	0.048
884.68	0.048
885.11	0.048
885.54	0.053
885.97	0.044
886.39	0.052
886.82	0.052
887.25	0.050
887.68	0.049
888.11	0.050
888.54	0.050
888.97	0.051
889.40	0.050
889.83	0.054
890.26	0.056
890.69	0.054
891.12	0.054
891.55	0.052
891.98	0.051
892.41	0.055
892.84	0.059
893.27	0.056
893.70	0.051
894.13	0.055
894.56	0.057
894.98	0.058
895.41	0.056
895.84	0.056
896.27	0.054
896.70	0.052
897.13	0.057
897.56	0.059
897.99	0.054
898.42	0.054
898.85	0.064
899.27	0.055
899.70	0.058
900.13	0.055
900.56	0.054
900.99	0.056
901.42	0.056
901.85	0.054
902.28	0.052
902.70	0.060
903.13	0.054
903.56	0.055
903.99	0.055
904.42	0.059
904.85	0.054
905.27	0.061
905.70	0.062
906.13	0.059
906.56	0.063
906.99	0.061
907.42	0.057
907.84	0.059
908.27	0.059
908.70	0.056
909.13	0.060
909.56	0.059
909.98	0.057
910.41	0.057
910.84	0.053
911.27	0.055
911.70	0.054
912.12	0.058
912.55	0.058
912.98	0.058
913.41	0.060
913.84	0.058
914.26	0.057
914.69	0.062
915.12	0.059
915.55	0.059
915.97	0.060
916.40	0.058
916.83	0.060
917.26	0.053
917.68	0.057
918.11	0.058
918.54	0.059
918.97	0.059
919.39	0.061
919.82	0.059
920.25	0.057
920.67	0.059
921.10	0.059
921.53	0.061
921.96	0.063
922.38	0.063
922.81	0.065
923.24	0.063
923.66	0.062
924.09	0.064
924.52	0.064
924.94	0.066
925.37	0.063
925.80	0.067
926.22	0.064
926.65	0.070
927.08	0.066
927.50	0.072
927.93	0.073
928.36	0.070
928.78	0.073
929.21	0.074
929.64	0.080
930.06	0.076
930.49	0.075
930.92	0.075
931.34	0.080
931.77	0.075
932.20	0.072
932.62	0.084
933.05	0.077
933.47	0.086
933.90	0.086
934.33	0.084
934.75	0.082
935.18	0.088
935.61	0.089
936.03	0.091
936.46	0.092
936.88	0.094
937.31	0.098
937.73	0.097
938.16	0.095
938.59	0.098
939.01	0.105
939.44	0.102
939.86	0.099
940.29	0.107
940.71	0.103
941.14	0.108
941.57	0.109
941.99	0.115
942.42	0.110
942.84	0.113
943.27	0.105
943.69	0.118
944.12	0.120
944.54	0.128
944.97	0.128
945.39	0.118
945.82	0.132
946.24	0.134
946.67	0.128
947.09	0.136
947.52	0.135
947.94	0.136
948.37	0.138
948.79	0.148
949.22	0.147
949.64	0.139
950.07	0.148
950.49	0.150
950.92	0.159
951.34	0.166
951.77	0.163
952.19	0.167
952.62	0.167
953.04	0.175
953.47	0.165
953.89	0.169
954.32	0.180
954.74	0.175
955.17	0.181
955.59	0.186
956.01	0.189
956.44	0.198
956.86	0.190
957.29	0.200
957.71	0.201
958.14	0.200
958.56	0.202
958.98	0.211
959.41	0.211
959.83	0.210
960.26	0.216
960.68	0.210
961.10	0.218
961.53	0.216
961.95	0.221
962.38	0.221
962.80	0.215
963.22	0.219
963.65	0.219
964.07	0.216
964.50	0.222
964.92	0.221
965.34	0.218
965.77	0.234
966.19	0.227
966.61	0.224
967.04	0.218
967.46	0.231
967.88	0.224
968.31	0.231
968.73	0.229
969.15	0.228
969.58	0.227
970.00	0.228
970.42	0.234
970.85	0.225
971.27	0.223
971.69	0.222
972.12	0.227
972.54	0.234
972.96	0.232
973.39	0.229
973.81	0.233
974.23	0.231
974.65	0.232
975.08	0.235
975.50	0.232
975.92	0.233
976.35	0.235
976.77	0.235
977.19	0.235
977.61	0.231
978.04	0.243
978.46	0.237
978.88	0.229
979.30	0.229
979.73	0.236
980.15	0.236
980.57	0.232
980.99	0.234
981.42	0.233
981.84	0.231
982.26	0.232
982.68	0.231
983.11	0.234
983.53	0.236
983.95	0.236
984.37	0.230
984.79	0.233
985.22	0.233
985.64	0.232
986.06	0.228
986.48	0.219
986.90	0.224
987.33	0.231
987.75	0.227
988.17	0.229
988.59	0.220
989.01	0.232
989.43	0.223
989.86	0.221
990.28	0.219
990.70	0.228
991.12	0.219
991.54	0.221
991.96	0.224
992.39	0.221
992.81	0.225
993.23	0.215
993.65	0.218
994.07	0.217
994.49	0.218
994.91	0.217
995.34	0.209
995.76	0.212
996.18	0.212
996.60	0.216
997.02	0.208
997.44	0.209
997.86	0.210
998.28	0.203
998.70	0.220
999.12	0.203
999.55	0.216
999.97	0.210
1000.39	0.202
1000.81	0.206
1001.23	0.203
1001.65	0.211
1002.07	0.205
1002.49	0.205
1002.91	0.206
1003.33	0.197
1003.75	0.194
1004.17	0.203
1004.59	0.202
1005.01	0.203
1005.43	0.196
1005.85	0.196
1006.28	0.206
1006.70	0.197
1007.12	0.196
1007.54	0.195
1007.96	0.189
1008.38	0.190
1008.80	0.198
1009.22	0.199
1009.64	0.179
1010.06	0.196
1010.48	0.187
1010.90	0.188
1011.32	0.182
1011.74	0.175
1012.16	0.181
1012.58	0.182
1013.00	0.174
1013.42	0.180
1013.84	0.175
1014.26	0.177
1014.67	0.189
1015.09	0.177
1015.51	0.182
1015.93	0.184
1016.35	0.173
1016.77	0.177
1017.19	0.170
1017.61	0.160
1018.03	0.178
1018.45	0.167
1018.87	0.165
1019.29	0.168
1019.71	0.166
1020.13	0.166
1020.55	0.157
1020.97	0.164
1021.38	0.151
1021.80	0.169
1022.22	0.154
1022.64	0.161
1023.06	0.141
1023.48	0.140
1023.90	0.154
1024.32	0.159
1024.74	0.141
1025.15	0.154
1025.57	0.141
1025.99	0.161
1026.41	0.153
1026.83	0.135
1027.25	0.155
1027.67	0.152
1028.08	0.150
1028.50	0.150
1028.92	0.142
1029.34	0.144
1029.76	0.143
1030.18	0.132
1030.60	0.131
1031.01	0.144
1031.43	0.135
1031.85	0.130
1032.27	0.141
1032.69	0.119
1033.10	0.131
1033.52	0.141
1033.94	0.136
1034.36	0.143
1034.78	0.118
1035.19	0.126
1035.61	0.134
1036.03	0.117
1036.45	0.132
1036.87	0.124
1037.28	0.117
1037.70	0.109
1038.12	0.120
1038.54	0.104
1038.95	0.114
1039.37	0.139
1039.79	0.122
1040.21	0.107
1040.62	0.114
1041.04	0.110
1041.46	0.126
1041.88	0.107
1042.29	0.106
1042.71	0.123
1043.13	0.092
1043.55	0.106
1043.96	0.124
1044.38	0.108
1044.80	0.102
1045.21	0.090
1045.63	0.119
1046.05	0.105
1046.47	0.096
1046.88	0.111
1047.30	0.119
1047.72	0.105
1048.13	0.099
1048.55	0.093
1048.97	0.125
1049.38	0.098
1049.80	0.115
1050.22	0.090
1050.63	0.096
1051.05	0.077
1051.47	0.084
1051.88	0.141
1052.30	0.090
1052.72	0.107
1053.13	0.144
1053.55	0.105
1053.97	0.100
1054.38	0.080
1054.80	0.088
1055.21	0.102
1055.63	0.087
1056.05	0.118
1056.46	0.112
1056.88	0.075
1057.29	0.121
1057.71	0.109
1058.13	0.069
1058.54	0.125
1058.96	0.072
1059.37	0.122
1059.79	0.100
1060.21	0.064
1060.62	0.087
1061.04	0.130
1061.45	0.091
1061.87	0.119
1062.28	0.127
1062.70	0.146
1063.12	0.142
1063.53	0.121
1063.95	0.101
1064.36	0.095
1064.78	0.051
1065.19	0.130
1065.61	0.123
1066.02	0.069
1066.44	0.072
1066.85	0.087
1067.27	0.132
1067.68	0.148
1068.10	0.134
1068.51	0.185
1068.93	0.152
1069.35	0.143
1069.76	0.164
1070.17	0.084
1070.59	0.073
1071.00	0.122
1071.42	0.132
1071.83	0.170
1072.25	0.252
1072.66	0.203
1073.08	0.162
1073.49	0.094
1073.91	0.188
1074.32	0.156
1074.74	0.261
1075.15	0.129
1075.57	0.257
1075.98	0.232
1076.40	0.033
1076.81	0.165
1077.22	0.316
1077.64	0.097
1078.05	0.277
1078.47	-0.027
1078.88	0.142
1079.30	0.142
1079.71	0.246
1080.12	0.348
1080.54	0.101
1080.95	0.095
1081.37	0.253
1081.78	0.245
1082.19	0.201
1082.61	0.252
1083.02	0.142
1083.44	0.207
1083.85	0.317
1084.26	-0.021
1084.68	0.027
1085.09	0.111
1085.50	0.164
1085.92	1.748
1086.33	0.077
1086.74	0.203
1087.16	0.046
1087.57	0.675
1087.98	0.328
1088.40	0.365
1088.81	0.236
1089.22	0.474
1089.64	0.421
1090.05	-0.064
1090.46	-0.004
1090.88	0.898
1091.29	0.129
1091.70	-0.012
1092.12	-0.000
1092.53	0.238
1092.94	0.354
1093.36	0.079
1093.77	0.722
1094.18	0.640
1094.59	0.041
1095.01	-0.024
1095.42	0.352
1095.83	0.255
1096.25	0.372
1096.66	0.311
1097.07	0.006
1097.48	0.434
1097.90	-0.185
1098.31	0.766
1098.72	0.254
1099.13	0.138
>>>>>End Processed Spectral Data<<<<<
