SpectraSuite Data File
++++++++++++++++++++++++++++++++++++
Date: Tue Jul 11 15:49:02 CEST 2017
User: IPCE
Dark Spectrum Present: Yes
Reference Spectrum Present: Yes
Number of Sampled Component Spectra: 1
Spectrometers: HR+C0708
Integration Time (usec): 1000 (HR+C0708)
Spectra Averaged: 10 (HR+C0708)
Boxcar Smoothing: 0 (HR+C0708)
Correct for Electrical Dark: No (HR+C0708)
Strobe/Lamp Enabled: No (HR+C0708)
Correct for Detector Non-linearity: No (HR+C0708)
Correct for Stray Light: No (HR+C0708)
Number of Pixels in Processed Spectrum: 2048
>>>>>Begin Processed Spectral Data<<<<<
188.76	0.185
189.23	0.287
189.70	0.735
190.17	-0.005
190.64	-0.071
191.12	0.617
191.59	0.477
192.06	0.138
192.53	0.372
193.01	0.241
193.48	0.740
193.95	0.139
194.42	-0.099
194.90	0.206
195.37	0.077
195.84	0.049
196.31	1.082
196.78	0.033
197.26	0.174
197.73	0.378
198.20	0.097
198.67	0.124
199.14	-0.034
199.62	0.355
200.09	0.097
200.56	0.263
201.03	0.179
201.50	0.326
201.97	0.156
202.45	0.336
202.92	0.401
203.39	0.362
203.86	0.436
204.33	0.421
204.80	0.365
205.28	0.514
205.75	0.391
206.22	0.504
206.69	0.654
207.16	0.212
207.63	0.358
208.11	0.414
208.58	0.224
209.05	0.391
209.52	0.640
209.99	0.295
210.46	0.245
210.93	0.253
211.41	0.340
211.88	0.537
212.35	0.360
212.82	0.304
213.29	0.382
213.76	0.394
214.23	0.253
214.70	0.216
215.18	0.377
215.65	0.353
216.12	0.450
216.59	0.312
217.06	0.429
217.53	0.262
218.00	0.305
218.47	0.440
218.94	0.334
219.41	0.449
219.89	0.480
220.36	0.477
220.83	0.422
221.30	0.349
221.77	0.477
222.24	0.698
222.71	0.539
223.18	0.538
223.65	0.478
224.12	0.436
224.59	0.506
225.06	0.651
225.54	0.572
226.01	0.572
226.48	0.674
226.95	0.696
227.42	0.877
227.89	0.762
228.36	0.803
228.83	0.888
229.30	0.908
229.77	0.889
230.24	1.170
230.71	1.077
231.18	1.074
231.65	1.204
232.12	1.334
232.59	1.310
233.06	1.324
233.53	1.390
234.00	1.617
234.47	1.600
234.94	1.613
235.41	1.500
235.88	1.673
236.35	1.519
236.82	1.701
237.29	1.772
237.76	1.726
238.23	1.776
238.70	1.905
239.17	1.937
239.64	1.919
240.11	1.950
240.58	1.983
241.05	2.032
241.52	1.895
241.99	2.117
242.46	2.047
242.93	2.031
243.40	2.067
243.87	2.182
244.34	2.229
244.81	2.102
245.28	2.041
245.75	2.251
246.22	2.203
246.69	2.200
247.16	2.217
247.63	2.207
248.10	2.216
248.57	2.324
249.04	2.337
249.51	2.286
249.98	2.208
250.45	2.308
250.92	2.246
251.39	2.131
251.85	2.035
252.32	2.118
252.79	1.920
253.26	1.923
253.73	1.852
254.20	1.750
254.67	1.715
255.14	1.612
255.61	1.583
256.08	1.553
256.55	1.465
257.02	1.429
257.49	1.402
257.95	1.368
258.42	1.325
258.89	1.283
259.36	1.261
259.83	1.234
260.30	1.204
260.77	1.183
261.24	1.155
261.71	1.129
262.17	1.113
262.64	1.094
263.11	1.074
263.58	1.051
264.05	1.043
264.52	1.027
264.99	1.007
265.46	0.991
265.92	0.979
266.39	0.966
266.86	0.952
267.33	0.936
267.80	0.931
268.27	0.916
268.74	0.906
269.20	0.899
269.67	0.885
270.14	0.872
270.61	0.862
271.08	0.857
271.55	0.849
272.01	0.841
272.48	0.829
272.95	0.827
273.42	0.814
273.89	0.807
274.36	0.804
274.82	0.799
275.29	0.789
275.76	0.787
276.23	0.776
276.70	0.774
277.16	0.770
277.63	0.765
278.10	0.761
278.57	0.754
279.04	0.749
279.50	0.748
279.97	0.745
280.44	0.743
280.91	0.744
281.38	0.738
281.84	0.738
282.31	0.734
282.78	0.736
283.25	0.730
283.72	0.728
284.18	0.728
284.65	0.731
285.12	0.726
285.59	0.723
286.05	0.723
286.52	0.723
286.99	0.722
287.46	0.725
287.92	0.723
288.39	0.726
288.86	0.723
289.33	0.723
289.79	0.719
290.26	0.716
290.73	0.717
291.20	0.713
291.66	0.713
292.13	0.705
292.60	0.702
293.07	0.699
293.53	0.694
294.00	0.687
294.47	0.682
294.93	0.676
295.40	0.669
295.87	0.658
296.34	0.656
296.80	0.648
297.27	0.635
297.74	0.633
298.20	0.627
298.67	0.616
299.14	0.607
299.60	0.602
300.07	0.591
300.54	0.581
301.01	0.574
301.47	0.563
301.94	0.563
302.41	0.547
302.87	0.541
303.34	0.534
303.81	0.527
304.27	0.520
304.74	0.511
305.21	0.505
305.67	0.498
306.14	0.493
306.61	0.485
307.07	0.479
307.54	0.475
308.01	0.465
308.47	0.465
308.94	0.461
309.40	0.452
309.87	0.452
310.34	0.448
310.80	0.443
311.27	0.437
311.74	0.437
312.20	0.427
312.67	0.431
313.13	0.430
313.60	0.423
314.07	0.421
314.53	0.416
315.00	0.418
315.47	0.414
315.93	0.409
316.40	0.410
316.86	0.408
317.33	0.405
317.80	0.402
318.26	0.397
318.73	0.399
319.19	0.395
319.66	0.396
320.13	0.391
320.59	0.387
321.06	0.386
321.52	0.383
321.99	0.385
322.45	0.381
322.92	0.377
323.39	0.378
323.85	0.378
324.32	0.374
324.78	0.370
325.25	0.366
325.71	0.369
326.18	0.366
326.64	0.360
327.11	0.359
327.58	0.358
328.04	0.356
328.51	0.354
328.97	0.354
329.44	0.351
329.90	0.349
330.37	0.347
330.83	0.346
331.30	0.341
331.76	0.338
332.23	0.336
332.69	0.332
333.16	0.328
333.62	0.328
334.09	0.324
334.56	0.323
335.02	0.322
335.49	0.320
335.95	0.314
336.42	0.313
336.88	0.308
337.35	0.309
337.81	0.308
338.28	0.305
338.74	0.307
339.20	0.304
339.67	0.305
340.13	0.301
340.60	0.303
341.06	0.299
341.53	0.298
341.99	0.293
342.46	0.295
342.92	0.292
343.39	0.295
343.85	0.291
344.32	0.290
344.78	0.292
345.25	0.287
345.71	0.292
346.17	0.287
346.64	0.284
347.10	0.285
347.57	0.284
348.03	0.279
348.50	0.276
348.96	0.271
349.43	0.275
349.89	0.270
350.35	0.272
350.82	0.267
351.28	0.263
351.75	0.261
352.21	0.261
352.67	0.254
353.14	0.252
353.60	0.249
354.07	0.244
354.53	0.243
355.00	0.238
355.46	0.236
355.92	0.232
356.39	0.229
356.85	0.220
357.31	0.217
357.78	0.213
358.24	0.206
358.71	0.199
359.17	0.194
359.63	0.187
360.10	0.182
360.56	0.176
361.03	0.168
361.49	0.161
361.95	0.154
362.42	0.143
362.88	0.139
363.34	0.128
363.81	0.125
364.27	0.119
364.73	0.114
365.20	0.107
365.66	0.102
366.12	0.096
366.59	0.093
367.05	0.090
367.51	0.084
367.98	0.081
368.44	0.083
368.90	0.077
369.37	0.079
369.83	0.075
370.29	0.073
370.76	0.074
371.22	0.071
371.68	0.071
372.15	0.071
372.61	0.071
373.07	0.069
373.54	0.069
374.00	0.068
374.46	0.069
374.92	0.064
375.39	0.066
375.85	0.066
376.31	0.066
376.78	0.067
377.24	0.063
377.70	0.063
378.16	0.066
378.63	0.061
379.09	0.063
379.55	0.063
380.01	0.061
380.48	0.064
380.94	0.066
381.40	0.061
381.87	0.059
382.33	0.059
382.79	0.062
383.25	0.061
383.72	0.063
384.18	0.059
384.64	0.059
385.10	0.058
385.56	0.060
386.03	0.056
386.49	0.057
386.95	0.059
387.41	0.056
387.88	0.056
388.34	0.060
388.80	0.059
389.26	0.056
389.72	0.057
390.19	0.059
390.65	0.058
391.11	0.058
391.57	0.056
392.04	0.056
392.50	0.054
392.96	0.055
393.42	0.057
393.88	0.059
394.34	0.057
394.81	0.057
395.27	0.055
395.73	0.053
396.19	0.055
396.65	0.055
397.12	0.054
397.58	0.052
398.04	0.056
398.50	0.054
398.96	0.055
399.42	0.053
399.89	0.055
400.35	0.051
400.81	0.055
401.27	0.056
401.73	0.052
402.19	0.051
402.65	0.052
403.12	0.051
403.58	0.051
404.04	0.048
404.50	0.050
404.96	0.049
405.42	0.048
405.88	0.048
406.34	0.050
406.81	0.049
407.27	0.047
407.73	0.049
408.19	0.045
408.65	0.047
409.11	0.050
409.57	0.047
410.03	0.050
410.49	0.047
410.96	0.046
411.42	0.048
411.88	0.045
412.34	0.045
412.80	0.047
413.26	0.046
413.72	0.045
414.18	0.047
414.64	0.044
415.10	0.043
415.56	0.046
416.02	0.042
416.48	0.044
416.95	0.044
417.41	0.044
417.87	0.040
418.33	0.042
418.79	0.044
419.25	0.045
419.71	0.045
420.17	0.043
420.63	0.044
421.09	0.046
421.55	0.044
422.01	0.040
422.47	0.041
422.93	0.043
423.39	0.042
423.85	0.044
424.31	0.043
424.77	0.041
425.23	0.041
425.69	0.042
426.15	0.044
426.61	0.045
427.07	0.043
427.53	0.044
427.99	0.044
428.45	0.044
428.91	0.042
429.37	0.043
429.83	0.042
430.29	0.043
430.75	0.040
431.21	0.040
431.67	0.045
432.13	0.040
432.59	0.040
433.05	0.042
433.51	0.040
433.97	0.044
434.43	0.042
434.89	0.041
435.35	0.041
435.81	0.039
436.27	0.039
436.73	0.039
437.19	0.039
437.65	0.039
438.11	0.042
438.57	0.044
439.03	0.038
439.48	0.041
439.94	0.039
440.40	0.038
440.86	0.042
441.32	0.041
441.78	0.039
442.24	0.037
442.70	0.039
443.16	0.039
443.62	0.039
444.08	0.039
444.54	0.042
444.99	0.039
445.45	0.039
445.91	0.038
446.37	0.038
446.83	0.038
447.29	0.040
447.75	0.041
448.21	0.041
448.67	0.040
449.12	0.038
449.58	0.036
450.04	0.037
450.50	0.037
450.96	0.036
451.42	0.038
451.88	0.041
452.34	0.039
452.79	0.040
453.25	0.040
453.71	0.037
454.17	0.038
454.63	0.041
455.09	0.038
455.55	0.038
456.00	0.038
456.46	0.039
456.92	0.041
457.38	0.042
457.84	0.038
458.30	0.040
458.75	0.039
459.21	0.037
459.67	0.039
460.13	0.038
460.59	0.042
461.04	0.038
461.50	0.038
461.96	0.038
462.42	0.042
462.88	0.037
463.33	0.038
463.79	0.040
464.25	0.037
464.71	0.040
465.17	0.040
465.62	0.040
466.08	0.039
466.54	0.039
467.00	0.039
467.46	0.041
467.91	0.039
468.37	0.039
468.83	0.040
469.29	0.039
469.74	0.042
470.20	0.039
470.66	0.039
471.12	0.041
471.57	0.041
472.03	0.040
472.49	0.042
472.95	0.041
473.40	0.041
473.86	0.039
474.32	0.039
474.78	0.039
475.23	0.040
475.69	0.039
476.15	0.043
476.60	0.040
477.06	0.039
477.52	0.040
477.98	0.041
478.43	0.041
478.89	0.044
479.35	0.041
479.80	0.041
480.26	0.039
480.72	0.040
481.18	0.041
481.63	0.040
482.09	0.042
482.55	0.040
483.00	0.040
483.46	0.041
483.92	0.042
484.37	0.042
484.83	0.042
485.29	0.042
485.74	0.041
486.20	0.042
486.66	0.042
487.11	0.043
487.57	0.042
488.03	0.043
488.48	0.041
488.94	0.040
489.40	0.042
489.85	0.041
490.31	0.041
490.77	0.044
491.22	0.042
491.68	0.042
492.13	0.046
492.59	0.044
493.05	0.042
493.50	0.041
493.96	0.040
494.42	0.042
494.87	0.043
495.33	0.040
495.78	0.040
496.24	0.041
496.70	0.043
497.15	0.042
497.61	0.042
498.06	0.044
498.52	0.042
498.98	0.043
499.43	0.040
499.89	0.040
500.34	0.041
500.80	0.044
501.25	0.044
501.71	0.042
502.17	0.043
502.62	0.041
503.08	0.040
503.53	0.041
503.99	0.041
504.44	0.043
504.90	0.040
505.36	0.040
505.81	0.040
506.27	0.041
506.72	0.041
507.18	0.041
507.63	0.041
508.09	0.041
508.54	0.041
509.00	0.042
509.45	0.042
509.91	0.042
510.36	0.041
510.82	0.042
511.27	0.041
511.73	0.042
512.19	0.039
512.64	0.044
513.10	0.041
513.55	0.041
514.01	0.040
514.46	0.040
514.92	0.040
515.37	0.041
515.83	0.040
516.28	0.043
516.73	0.040
517.19	0.041
517.64	0.040
518.10	0.040
518.55	0.043
519.01	0.041
519.46	0.040
519.92	0.041
520.37	0.042
520.83	0.042
521.28	0.041
521.74	0.040
522.19	0.040
522.65	0.040
523.10	0.040
523.55	0.040
524.01	0.041
524.46	0.042
524.92	0.042
525.37	0.041
525.83	0.042
526.28	0.040
526.73	0.042
527.19	0.042
527.64	0.044
528.10	0.040
528.55	0.042
529.01	0.042
529.46	0.044
529.91	0.041
530.37	0.043
530.82	0.043
531.28	0.043
531.73	0.042
532.18	0.044
532.64	0.042
533.09	0.042
533.54	0.043
534.00	0.043
534.45	0.046
534.91	0.043
535.36	0.046
535.81	0.043
536.27	0.046
536.72	0.044
537.17	0.044
537.63	0.045
538.08	0.045
538.54	0.046
538.99	0.045
539.44	0.049
539.90	0.046
540.35	0.046
540.80	0.046
541.26	0.046
541.71	0.047
542.16	0.049
542.62	0.050
543.07	0.049
543.52	0.048
543.98	0.050
544.43	0.050
544.88	0.051
545.34	0.052
545.79	0.050
546.24	0.053
546.69	0.050
547.15	0.051
547.60	0.054
548.05	0.052
548.51	0.052
548.96	0.053
549.41	0.053
549.86	0.054
550.32	0.054
550.77	0.054
551.22	0.058
551.68	0.057
552.13	0.057
552.58	0.056
553.03	0.056
553.49	0.058
553.94	0.057
554.39	0.060
554.84	0.062
555.30	0.062
555.75	0.061
556.20	0.063
556.65	0.064
557.11	0.062
557.56	0.064
558.01	0.062
558.46	0.066
558.92	0.065
559.37	0.065
559.82	0.067
560.27	0.068
560.72	0.067
561.18	0.068
561.63	0.070
562.08	0.070
562.53	0.069
562.99	0.071
563.44	0.070
563.89	0.072
564.34	0.074
564.79	0.075
565.25	0.075
565.70	0.074
566.15	0.075
566.60	0.078
567.05	0.077
567.50	0.078
567.96	0.080
568.41	0.081
568.86	0.078
569.31	0.080
569.76	0.081
570.21	0.081
570.67	0.081
571.12	0.084
571.57	0.085
572.02	0.087
572.47	0.087
572.92	0.086
573.37	0.086
573.83	0.090
574.28	0.091
574.73	0.090
575.18	0.090
575.63	0.093
576.08	0.093
576.53	0.095
576.98	0.094
577.44	0.097
577.89	0.096
578.34	0.098
578.79	0.102
579.24	0.099
579.69	0.101
580.14	0.104
580.59	0.104
581.04	0.107
581.49	0.108
581.95	0.109
582.40	0.109
582.85	0.110
583.30	0.110
583.75	0.112
584.20	0.116
584.65	0.116
585.10	0.118
585.55	0.119
586.00	0.122
586.45	0.123
586.90	0.123
587.35	0.127
587.80	0.126
588.25	0.127
588.71	0.130
589.16	0.132
589.61	0.135
590.06	0.136
590.51	0.137
590.96	0.139
591.41	0.141
591.86	0.143
592.31	0.146
592.76	0.146
593.21	0.148
593.66	0.151
594.11	0.152
594.56	0.154
595.01	0.156
595.46	0.158
595.91	0.159
596.36	0.165
596.81	0.166
597.26	0.167
597.71	0.170
598.16	0.170
598.61	0.173
599.06	0.174
599.51	0.175
599.96	0.178
600.41	0.180
600.86	0.184
601.31	0.184
601.76	0.187
602.21	0.186
602.65	0.192
603.10	0.191
603.55	0.194
604.00	0.196
604.45	0.198
604.90	0.198
605.35	0.201
605.80	0.201
606.25	0.203
606.70	0.205
607.15	0.207
607.60	0.209
608.05	0.210
608.50	0.211
608.95	0.214
609.39	0.215
609.84	0.215
610.29	0.216
610.74	0.219
611.19	0.218
611.64	0.222
612.09	0.222
612.54	0.224
612.99	0.225
613.44	0.226
613.88	0.226
614.33	0.226
614.78	0.226
615.23	0.229
615.68	0.228
616.13	0.230
616.58	0.231
617.03	0.229
617.47	0.230
617.92	0.234
618.37	0.236
618.82	0.234
619.27	0.232
619.72	0.235
620.17	0.235
620.61	0.237
621.06	0.237
621.51	0.238
621.96	0.238
622.41	0.241
622.86	0.236
623.30	0.241
623.75	0.241
624.20	0.244
624.65	0.244
625.10	0.244
625.54	0.245
625.99	0.247
626.44	0.245
626.89	0.248
627.34	0.251
627.78	0.251
628.23	0.251
628.68	0.253
629.13	0.253
629.58	0.253
630.02	0.256
630.47	0.258
630.92	0.261
631.37	0.261
631.81	0.263
632.26	0.264
632.71	0.268
633.16	0.269
633.61	0.271
634.05	0.272
634.50	0.274
634.95	0.276
635.40	0.276
635.84	0.281
636.29	0.282
636.74	0.286
637.18	0.286
637.63	0.290
638.08	0.292
638.53	0.295
638.97	0.297
639.42	0.300
639.87	0.304
640.32	0.306
640.76	0.309
641.21	0.310
641.66	0.316
642.10	0.323
642.55	0.321
643.00	0.324
643.44	0.326
643.89	0.332
644.34	0.334
644.79	0.338
645.23	0.339
645.68	0.345
646.13	0.346
646.57	0.349
647.02	0.353
647.47	0.354
647.91	0.358
648.36	0.364
648.81	0.365
649.25	0.370
649.70	0.373
650.15	0.376
650.59	0.378
651.04	0.382
651.48	0.383
651.93	0.387
652.38	0.388
652.82	0.391
653.27	0.394
653.72	0.397
654.16	0.399
654.61	0.400
655.06	0.408
655.50	0.408
655.95	0.407
656.39	0.412
656.84	0.414
657.29	0.413
657.73	0.415
658.18	0.419
658.62	0.422
659.07	0.424
659.52	0.426
659.96	0.427
660.41	0.427
660.85	0.427
661.30	0.429
661.74	0.433
662.19	0.434
662.64	0.429
663.08	0.435
663.53	0.436
663.97	0.436
664.42	0.435
664.86	0.438
665.31	0.435
665.75	0.433
666.20	0.432
666.65	0.435
667.09	0.432
667.54	0.429
667.98	0.428
668.43	0.427
668.87	0.423
669.32	0.421
669.76	0.418
670.21	0.414
670.65	0.410
671.10	0.408
671.54	0.400
671.99	0.398
672.43	0.392
672.88	0.387
673.32	0.380
673.77	0.372
674.21	0.369
674.66	0.361
675.10	0.357
675.55	0.350
675.99	0.344
676.44	0.337
676.88	0.326
677.33	0.319
677.77	0.309
678.22	0.305
678.66	0.296
679.11	0.287
679.55	0.279
679.99	0.272
680.44	0.265
680.88	0.257
681.33	0.248
681.77	0.240
682.22	0.232
682.66	0.223
683.11	0.215
683.55	0.209
683.99	0.202
684.44	0.195
684.88	0.188
685.33	0.178
685.77	0.173
686.21	0.167
686.66	0.159
687.10	0.153
687.55	0.148
687.99	0.144
688.44	0.137
688.88	0.131
689.32	0.126
689.77	0.119
690.21	0.117
690.65	0.111
691.10	0.105
691.54	0.101
691.99	0.098
692.43	0.095
692.87	0.091
693.32	0.086
693.76	0.084
694.20	0.080
694.65	0.078
695.09	0.074
695.53	0.074
695.98	0.071
696.42	0.066
696.86	0.061
697.31	0.063
697.75	0.058
698.19	0.056
698.64	0.055
699.08	0.054
699.52	0.050
699.97	0.050
700.41	0.050
700.85	0.048
701.30	0.046
701.74	0.039
702.18	0.043
702.63	0.039
703.07	0.042
703.51	0.040
703.96	0.039
704.40	0.037
704.84	0.036
705.28	0.037
705.73	0.035
706.17	0.032
706.61	0.033
707.06	0.031
707.50	0.031
707.94	0.029
708.38	0.029
708.83	0.028
709.27	0.028
709.71	0.030
710.15	0.026
710.60	0.028
711.04	0.026
711.48	0.024
711.92	0.027
712.37	0.027
712.81	0.027
713.25	0.024
713.69	0.027
714.13	0.025
714.58	0.024
715.02	0.022
715.46	0.024
715.90	0.023
716.35	0.023
716.79	0.023
717.23	0.024
717.67	0.023
718.11	0.020
718.56	0.023
719.00	0.022
719.44	0.021
719.88	0.025
720.32	0.025
720.76	0.019
721.21	0.025
721.65	0.025
722.09	0.022
722.53	0.024
722.97	0.021
723.41	0.021
723.86	0.022
724.30	0.022
724.74	0.023
725.18	0.024
725.62	0.020
726.06	0.022
726.50	0.021
726.95	0.023
727.39	0.024
727.83	0.023
728.27	0.025
728.71	0.020
729.15	0.023
729.59	0.025
730.03	0.022
730.48	0.021
730.92	0.025
731.36	0.026
731.80	0.023
732.24	0.022
732.68	0.024
733.12	0.024
733.56	0.024
734.00	0.024
734.44	0.026
734.89	0.023
735.33	0.026
735.77	0.024
736.21	0.026
736.65	0.027
737.09	0.024
737.53	0.026
737.97	0.026
738.41	0.026
738.85	0.024
739.29	0.025
739.73	0.027
740.17	0.025
740.61	0.027
741.05	0.027
741.49	0.024
741.93	0.025
742.37	0.027
742.81	0.026
743.26	0.025
743.70	0.025
744.14	0.027
744.58	0.026
745.02	0.027
745.46	0.023
745.90	0.026
746.34	0.026
746.78	0.026
747.22	0.027
747.66	0.026
748.10	0.027
748.54	0.027
748.98	0.025
749.42	0.026
749.86	0.027
750.29	0.028
750.73	0.028
751.17	0.025
751.61	0.028
752.05	0.027
752.49	0.024
752.93	0.027
753.37	0.027
753.81	0.026
754.25	0.025
754.69	0.025
755.13	0.026
755.57	0.027
756.01	0.027
756.45	0.022
756.89	0.025
757.33	0.027
757.77	0.025
758.21	0.026
758.64	0.026
759.08	0.025
759.52	0.028
759.96	0.029
760.40	0.025
760.84	0.025
761.28	0.028
761.72	0.023
762.16	0.024
762.60	0.023
763.03	0.024
763.47	0.025
763.91	0.022
764.35	0.024
764.79	0.028
765.23	0.024
765.67	0.024
766.11	0.027
766.54	0.027
766.98	0.026
767.42	0.023
767.86	0.027
768.30	0.027
768.74	0.024
769.17	0.028
769.61	0.027
770.05	0.024
770.49	0.024
770.93	0.025
771.37	0.025
771.80	0.027
772.24	0.026
772.68	0.026
773.12	0.025
773.56	0.027
774.00	0.024
774.43	0.023
774.87	0.025
775.31	0.028
775.75	0.026
776.19	0.026
776.62	0.027
777.06	0.024
777.50	0.025
777.94	0.025
778.37	0.025
778.81	0.026
779.25	0.026
779.69	0.021
780.13	0.025
780.56	0.022
781.00	0.025
781.44	0.029
781.88	0.024
782.31	0.027
782.75	0.027
783.19	0.025
783.63	0.027
784.06	0.022
784.50	0.027
784.94	0.026
785.37	0.027
785.81	0.025
786.25	0.021
786.69	0.023
787.12	0.025
787.56	0.028
788.00	0.022
788.43	0.024
788.87	0.023
789.31	0.025
789.75	0.026
790.18	0.024
790.62	0.026
791.06	0.023
791.49	0.027
791.93	0.025
792.37	0.022
792.80	0.026
793.24	0.027
793.68	0.023
794.11	0.024
794.55	0.022
794.99	0.022
795.42	0.027
795.86	0.029
796.30	0.026
796.73	0.026
797.17	0.027
797.61	0.023
798.04	0.021
798.48	0.024
798.91	0.025
799.35	0.025
799.79	0.025
800.22	0.024
800.66	0.022
801.10	0.026
801.53	0.020
801.97	0.025
802.40	0.023
802.84	0.026
803.28	0.022
803.71	0.024
804.15	0.027
804.58	0.021
805.02	0.022
805.46	0.024
805.89	0.025
806.33	0.025
806.76	0.023
807.20	0.024
807.63	0.026
808.07	0.028
808.51	0.023
808.94	0.024
809.38	0.024
809.81	0.021
810.25	0.024
810.68	0.027
811.12	0.027
811.55	0.026
811.99	0.026
812.42	0.026
812.86	0.026
813.29	0.024
813.73	0.027
814.17	0.026
814.60	0.022
815.04	0.026
815.47	0.026
815.91	0.028
816.34	0.031
816.78	0.024
817.21	0.024
817.65	0.028
818.08	0.028
818.52	0.026
818.95	0.024
819.39	0.026
819.82	0.025
820.25	0.029
820.69	0.027
821.12	0.025
821.56	0.027
821.99	0.028
822.43	0.029
822.86	0.022
823.30	0.024
823.73	0.022
824.17	0.026
824.60	0.025
825.04	0.027
825.47	0.026
825.90	0.028
826.34	0.026
826.77	0.028
827.21	0.030
827.64	0.027
828.08	0.030
828.51	0.030
828.94	0.027
829.38	0.029
829.81	0.030
830.25	0.029
830.68	0.029
831.11	0.031
831.55	0.029
831.98	0.031
832.42	0.032
832.85	0.029
833.28	0.033
833.72	0.032
834.15	0.034
834.58	0.036
835.02	0.026
835.45	0.029
835.88	0.033
836.32	0.032
836.75	0.034
837.19	0.035
837.62	0.037
838.05	0.039
838.49	0.030
838.92	0.033
839.35	0.033
839.79	0.030
840.22	0.033
840.65	0.035
841.09	0.028
841.52	0.033
841.95	0.036
842.39	0.034
842.82	0.034
843.25	0.033
843.68	0.033
844.12	0.037
844.55	0.038
844.98	0.033
845.42	0.031
845.85	0.038
846.28	0.036
846.71	0.034
847.15	0.037
847.58	0.038
848.01	0.029
848.45	0.033
848.88	0.038
849.31	0.035
849.74	0.029
850.18	0.031
850.61	0.030
851.04	0.038
851.47	0.034
851.91	0.037
852.34	0.039
852.77	0.037
853.20	0.038
853.64	0.036
854.07	0.038
854.50	0.036
854.93	0.038
855.36	0.034
855.80	0.031
856.23	0.038
856.66	0.041
857.09	0.036
857.52	0.038
857.96	0.041
858.39	0.037
858.82	0.034
859.25	0.034
859.68	0.038
860.12	0.035
860.55	0.035
860.98	0.036
861.41	0.038
861.84	0.036
862.27	0.042
862.71	0.039
863.14	0.032
863.57	0.037
864.00	0.046
864.43	0.034
864.86	0.035
865.30	0.040
865.73	0.038
866.16	0.046
866.59	0.046
867.02	0.039
867.45	0.049
867.88	0.041
868.31	0.034
868.75	0.040
869.18	0.043
869.61	0.039
870.04	0.043
870.47	0.039
870.90	0.038
871.33	0.037
871.76	0.042
872.19	0.036
872.62	0.040
873.06	0.044
873.49	0.049
873.92	0.035
874.35	0.035
874.78	0.039
875.21	0.043
875.64	0.046
876.07	0.042
876.50	0.046
876.93	0.039
877.36	0.045
877.79	0.043
878.22	0.044
878.65	0.048
879.08	0.045
879.51	0.046
879.94	0.041
880.37	0.041
880.80	0.042
881.23	0.042
881.67	0.045
882.10	0.042
882.53	0.044
882.96	0.047
883.39	0.043
883.82	0.045
884.25	0.050
884.68	0.048
885.11	0.043
885.54	0.050
885.97	0.041
886.39	0.044
886.82	0.045
887.25	0.047
887.68	0.047
888.11	0.047
888.54	0.046
888.97	0.045
889.40	0.044
889.83	0.051
890.26	0.048
890.69	0.046
891.12	0.050
891.55	0.047
891.98	0.047
892.41	0.047
892.84	0.049
893.27	0.046
893.70	0.052
894.13	0.056
894.56	0.051
894.98	0.047
895.41	0.048
895.84	0.052
896.27	0.051
896.70	0.052
897.13	0.055
897.56	0.060
897.99	0.048
898.42	0.051
898.85	0.057
899.27	0.054
899.70	0.051
900.13	0.055
900.56	0.053
900.99	0.052
901.42	0.052
901.85	0.056
902.28	0.055
902.70	0.059
903.13	0.051
903.56	0.052
903.99	0.056
904.42	0.056
904.85	0.051
905.27	0.056
905.70	0.055
906.13	0.059
906.56	0.056
906.99	0.056
907.42	0.058
907.84	0.055
908.27	0.055
908.70	0.054
909.13	0.057
909.56	0.053
909.98	0.055
910.41	0.053
910.84	0.054
911.27	0.052
911.70	0.053
912.12	0.055
912.55	0.056
912.98	0.057
913.41	0.055
913.84	0.056
914.26	0.056
914.69	0.053
915.12	0.055
915.55	0.059
915.97	0.059
916.40	0.056
916.83	0.053
917.26	0.054
917.68	0.055
918.11	0.053
918.54	0.055
918.97	0.054
919.39	0.057
919.82	0.057
920.25	0.055
920.67	0.058
921.10	0.055
921.53	0.056
921.96	0.060
922.38	0.055
922.81	0.062
923.24	0.062
923.66	0.058
924.09	0.062
924.52	0.062
924.94	0.062
925.37	0.065
925.80	0.064
926.22	0.063
926.65	0.064
927.08	0.063
927.50	0.064
927.93	0.072
928.36	0.069
928.78	0.067
929.21	0.070
929.64	0.077
930.06	0.071
930.49	0.071
930.92	0.069
931.34	0.073
931.77	0.074
932.20	0.076
932.62	0.076
933.05	0.077
933.47	0.080
933.90	0.083
934.33	0.081
934.75	0.078
935.18	0.085
935.61	0.083
936.03	0.086
936.46	0.092
936.88	0.093
937.31	0.097
937.73	0.093
938.16	0.089
938.59	0.097
939.01	0.101
939.44	0.098
939.86	0.097
940.29	0.105
940.71	0.103
941.14	0.106
941.57	0.106
941.99	0.115
942.42	0.113
942.84	0.114
943.27	0.108
943.69	0.114
944.12	0.113
944.54	0.121
944.97	0.121
945.39	0.125
945.82	0.127
946.24	0.123
946.67	0.131
947.09	0.129
947.52	0.121
947.94	0.138
948.37	0.129
948.79	0.131
949.22	0.146
949.64	0.150
950.07	0.148
950.49	0.142
950.92	0.152
951.34	0.161
951.77	0.157
952.19	0.158
952.62	0.168
953.04	0.171
953.47	0.164
953.89	0.165
954.32	0.171
954.74	0.177
955.17	0.181
955.59	0.186
956.01	0.190
956.44	0.189
956.86	0.190
957.29	0.200
957.71	0.199
958.14	0.198
958.56	0.199
958.98	0.205
959.41	0.208
959.83	0.206
960.26	0.207
960.68	0.213
961.10	0.215
961.53	0.213
961.95	0.218
962.38	0.219
962.80	0.219
963.22	0.213
963.65	0.216
964.07	0.219
964.50	0.224
964.92	0.220
965.34	0.214
965.77	0.227
966.19	0.224
966.61	0.215
967.04	0.219
967.46	0.224
967.88	0.229
968.31	0.228
968.73	0.224
969.15	0.225
969.58	0.229
970.00	0.224
970.42	0.226
970.85	0.226
971.27	0.222
971.69	0.228
972.12	0.228
972.54	0.234
972.96	0.230
973.39	0.222
973.81	0.232
974.23	0.231
974.65	0.228
975.08	0.228
975.50	0.226
975.92	0.227
976.35	0.230
976.77	0.230
977.19	0.232
977.61	0.230
978.04	0.237
978.46	0.236
978.88	0.227
979.30	0.228
979.73	0.228
980.15	0.229
980.57	0.227
980.99	0.225
981.42	0.227
981.84	0.222
982.26	0.227
982.68	0.224
983.11	0.233
983.53	0.233
983.95	0.232
984.37	0.231
984.79	0.228
985.22	0.226
985.64	0.227
986.06	0.225
986.48	0.221
986.90	0.223
987.33	0.228
987.75	0.227
988.17	0.229
988.59	0.223
989.01	0.225
989.43	0.224
989.86	0.220
990.28	0.215
990.70	0.218
991.12	0.221
991.54	0.218
991.96	0.214
992.39	0.219
992.81	0.222
993.23	0.218
993.65	0.213
994.07	0.218
994.49	0.203
994.91	0.218
995.34	0.210
995.76	0.211
996.18	0.209
996.60	0.215
997.02	0.214
997.44	0.206
997.86	0.210
998.28	0.210
998.70	0.213
999.12	0.204
999.55	0.209
999.97	0.203
1000.39	0.195
1000.81	0.198
1001.23	0.199
1001.65	0.200
1002.07	0.206
1002.49	0.202
1002.91	0.204
1003.33	0.199
1003.75	0.195
1004.17	0.199
1004.59	0.190
1005.01	0.197
1005.43	0.196
1005.85	0.193
1006.28	0.192
1006.70	0.199
1007.12	0.192
1007.54	0.197
1007.96	0.176
1008.38	0.185
1008.80	0.193
1009.22	0.178
1009.64	0.174
1010.06	0.186
1010.48	0.185
1010.90	0.178
1011.32	0.175
1011.74	0.176
1012.16	0.177
1012.58	0.179
1013.00	0.169
1013.42	0.171
1013.84	0.170
1014.26	0.182
1014.67	0.173
1015.09	0.170
1015.51	0.170
1015.93	0.177
1016.35	0.174
1016.77	0.165
1017.19	0.173
1017.61	0.167
1018.03	0.170
1018.45	0.159
1018.87	0.150
1019.29	0.159
1019.71	0.166
1020.13	0.162
1020.55	0.155
1020.97	0.149
1021.38	0.155
1021.80	0.155
1022.22	0.153
1022.64	0.157
1023.06	0.148
1023.48	0.142
1023.90	0.134
1024.32	0.150
1024.74	0.144
1025.15	0.143
1025.57	0.134
1025.99	0.159
1026.41	0.149
1026.83	0.137
1027.25	0.152
1027.67	0.144
1028.08	0.146
1028.50	0.142
1028.92	0.150
1029.34	0.138
1029.76	0.138
1030.18	0.117
1030.60	0.132
1031.01	0.134
1031.43	0.128
1031.85	0.130
1032.27	0.133
1032.69	0.110
1033.10	0.129
1033.52	0.132
1033.94	0.135
1034.36	0.140
1034.78	0.125
1035.19	0.113
1035.61	0.128
1036.03	0.117
1036.45	0.128
1036.87	0.129
1037.28	0.117
1037.70	0.107
1038.12	0.116
1038.54	0.122
1038.95	0.105
1039.37	0.133
1039.79	0.113
1040.21	0.095
1040.62	0.115
1041.04	0.114
1041.46	0.110
1041.88	0.118
1042.29	0.103
1042.71	0.110
1043.13	0.089
1043.55	0.103
1043.96	0.116
1044.38	0.099
1044.80	0.094
1045.21	0.106
1045.63	0.128
1046.05	0.094
1046.47	0.092
1046.88	0.111
1047.30	0.116
1047.72	0.121
1048.13	0.105
1048.55	0.106
1048.97	0.101
1049.38	0.078
1049.80	0.091
1050.22	0.088
1050.63	0.092
1051.05	0.083
1051.47	0.088
1051.88	0.084
1052.30	0.085
1052.72	0.111
1053.13	0.118
1053.55	0.103
1053.97	0.110
1054.38	0.098
1054.80	0.102
1055.21	0.117
1055.63	0.096
1056.05	0.102
1056.46	0.108
1056.88	0.092
1057.29	0.083
1057.71	0.083
1058.13	0.097
1058.54	0.100
1058.96	0.101
1059.37	0.128
1059.79	0.077
1060.21	0.049
1060.62	0.105
1061.04	0.124
1061.45	0.082
1061.87	0.076
1062.28	0.105
1062.70	0.126
1063.12	0.082
1063.53	0.094
1063.95	0.116
1064.36	0.111
1064.78	0.069
1065.19	0.132
1065.61	0.137
1066.02	0.087
1066.44	0.063
1066.85	0.128
1067.27	0.111
1067.68	0.061
1068.10	0.116
1068.51	0.171
1068.93	0.159
1069.35	0.067
1069.76	0.174
1070.17	0.078
1070.59	0.073
1071.00	0.100
1071.42	0.156
1071.83	0.164
1072.25	0.147
1072.66	0.085
1073.08	0.112
1073.49	0.217
1073.91	0.140
1074.32	0.189
1074.74	0.254
1075.15	0.142
1075.57	0.205
1075.98	0.282
1076.40	0.042
1076.81	0.087
1077.22	0.253
1077.64	0.297
1078.05	0.157
1078.47	0.043
1078.88	0.250
1079.30	0.176
1079.71	0.066
1080.12	0.175
1080.54	0.108
1080.95	0.128
1081.37	0.054
1081.78	0.146
1082.19	0.108
1082.61	0.220
1083.02	0.138
1083.44	0.325
1083.85	0.103
1084.26	0.098
1084.68	0.301
1085.09	0.029
1085.50	0.176
1085.92	0.602
1086.33	0.195
1086.74	0.072
1087.16	0.053
1087.57	0.088
1087.98	0.502
1088.40	0.228
1088.81	0.100
1089.22	0.192
1089.64	0.161
1090.05	-0.150
1090.46	-0.092
1090.88	0.542
1091.29	0.212
1091.70	0.408
1092.12	0.417
1092.53	0.573
1092.94	0.655
1093.36	-0.080
1093.77	0.708
1094.18	0.710
1094.59	0.065
1095.01	0.384
1095.42	0.186
1095.83	1.223
1096.25	0.437
1096.66	0.330
1097.07	0.269
1097.48	0.059
1097.90	-0.181
1098.31	0.655
1098.72	0.699
1099.13	0.055
>>>>>End Processed Spectral Data<<<<<
