SpectraSuite Data File
++++++++++++++++++++++++++++++++++++
Date: Tue Jul 11 14:52:29 CEST 2017
User: IPCE
Dark Spectrum Present: Yes
Reference Spectrum Present: Yes
Number of Sampled Component Spectra: 1
Spectrometers: HR+C0708
Integration Time (usec): 1000 (HR+C0708)
Spectra Averaged: 10 (HR+C0708)
Boxcar Smoothing: 0 (HR+C0708)
Correct for Electrical Dark: No (HR+C0708)
Strobe/Lamp Enabled: No (HR+C0708)
Correct for Detector Non-linearity: No (HR+C0708)
Correct for Stray Light: No (HR+C0708)
Number of Pixels in Processed Spectrum: 2048
>>>>>Begin Processed Spectral Data<<<<<
188.76	0.491
189.23	0.398
189.70	0.715
190.17	-0.000
190.64	0.430
191.12	0.328
191.59	1.097
192.06	0.298
192.53	1.409
193.01	0.681
193.48	0.109
193.95	-0.094
194.42	-0.023
194.90	0.368
195.37	0.859
195.84	-0.000
196.31	0.783
196.78	1.424
197.26	0.084
197.73	0.485
198.20	0.675
198.67	0.699
199.14	-0.000
199.62	-0.000
200.09	0.244
200.56	0.312
201.03	0.350
201.50	0.333
201.97	0.503
202.45	0.345
202.92	0.249
203.39	0.438
203.86	0.484
204.33	0.535
204.80	0.337
205.28	0.451
205.75	0.555
206.22	0.226
206.69	0.338
207.16	0.478
207.63	0.310
208.11	0.410
208.58	0.407
209.05	0.463
209.52	0.550
209.99	0.478
210.46	0.308
210.93	0.488
211.41	0.416
211.88	0.407
212.35	0.547
212.82	0.510
213.29	0.534
213.76	0.453
214.23	0.336
214.70	0.804
215.18	0.499
215.65	0.495
216.12	0.555
216.59	0.511
217.06	0.535
217.53	0.436
218.00	0.386
218.47	0.733
218.94	0.472
219.41	0.452
219.89	0.576
220.36	0.480
220.83	0.507
221.30	0.770
221.77	0.479
222.24	0.517
222.71	0.553
223.18	0.590
223.65	0.633
224.12	0.499
224.59	0.559
225.06	0.511
225.54	0.670
226.01	0.608
226.48	0.642
226.95	0.788
227.42	0.840
227.89	0.855
228.36	0.956
228.83	0.951
229.30	1.033
229.77	1.044
230.24	1.310
230.71	1.264
231.18	1.195
231.65	1.360
232.12	1.246
232.59	1.322
233.06	1.411
233.53	1.577
234.00	1.384
234.47	1.514
234.94	1.561
235.41	1.743
235.88	1.709
236.35	1.681
236.82	1.819
237.29	1.859
237.76	1.861
238.23	1.954
238.70	1.824
239.17	1.983
239.64	2.337
240.11	2.071
240.58	1.965
241.05	2.155
241.52	2.138
241.99	2.232
242.46	2.184
242.93	2.198
243.40	2.254
243.87	2.236
244.34	2.215
244.81	2.242
245.28	2.176
245.75	2.403
246.22	2.146
246.69	2.227
247.16	2.439
247.63	2.224
248.10	2.361
248.57	2.207
249.04	2.290
249.51	2.291
249.98	2.211
250.45	2.213
250.92	2.039
251.39	2.084
251.85	1.966
252.32	1.888
252.79	1.751
253.26	1.697
253.73	1.606
254.20	1.488
254.67	1.401
255.14	1.331
255.61	1.274
256.08	1.231
256.55	1.170
257.02	1.105
257.49	1.071
257.95	1.035
258.42	1.007
258.89	0.974
259.36	0.946
259.83	0.918
260.30	0.895
260.77	0.877
261.24	0.856
261.71	0.838
262.17	0.824
262.64	0.811
263.11	0.799
263.58	0.782
264.05	0.766
264.52	0.752
264.99	0.748
265.46	0.731
265.92	0.728
266.39	0.714
266.86	0.702
267.33	0.691
267.80	0.686
268.27	0.677
268.74	0.667
269.20	0.658
269.67	0.650
270.14	0.647
270.61	0.640
271.08	0.629
271.55	0.624
272.01	0.614
272.48	0.609
272.95	0.602
273.42	0.598
273.89	0.593
274.36	0.588
274.82	0.586
275.29	0.581
275.76	0.574
276.23	0.574
276.70	0.568
277.16	0.564
277.63	0.560
278.10	0.559
278.57	0.553
279.04	0.546
279.50	0.547
279.97	0.546
280.44	0.543
280.91	0.536
281.38	0.538
281.84	0.538
282.31	0.534
282.78	0.537
283.25	0.532
283.72	0.530
284.18	0.530
284.65	0.530
285.12	0.526
285.59	0.525
286.05	0.528
286.52	0.525
286.99	0.527
287.46	0.525
287.92	0.523
288.39	0.522
288.86	0.523
289.33	0.518
289.79	0.521
290.26	0.519
290.73	0.516
291.20	0.516
291.66	0.515
292.13	0.508
292.60	0.510
293.07	0.501
293.53	0.498
294.00	0.496
294.47	0.491
294.93	0.487
295.40	0.482
295.87	0.471
296.34	0.470
296.80	0.464
297.27	0.456
297.74	0.448
298.20	0.440
298.67	0.436
299.14	0.430
299.60	0.424
300.07	0.414
300.54	0.407
301.01	0.404
301.47	0.395
301.94	0.389
302.41	0.385
302.87	0.377
303.34	0.375
303.81	0.367
304.27	0.358
304.74	0.350
305.21	0.350
305.67	0.346
306.14	0.340
306.61	0.336
307.07	0.330
307.54	0.324
308.01	0.320
308.47	0.317
308.94	0.314
309.40	0.313
309.87	0.306
310.34	0.304
310.80	0.303
311.27	0.295
311.74	0.296
312.20	0.295
312.67	0.290
313.13	0.290
313.60	0.285
314.07	0.284
314.53	0.281
315.00	0.279
315.47	0.278
315.93	0.278
316.40	0.275
316.86	0.273
317.33	0.273
317.80	0.270
318.26	0.272
318.73	0.269
319.19	0.270
319.66	0.267
320.13	0.264
320.59	0.264
321.06	0.263
321.52	0.260
321.99	0.260
322.45	0.258
322.92	0.259
323.39	0.256
323.85	0.253
324.32	0.254
324.78	0.253
325.25	0.250
325.71	0.252
326.18	0.250
326.64	0.248
327.11	0.249
327.58	0.247
328.04	0.243
328.51	0.241
328.97	0.241
329.44	0.243
329.90	0.240
330.37	0.234
330.83	0.236
331.30	0.234
331.76	0.233
332.23	0.233
332.69	0.231
333.16	0.229
333.62	0.228
334.09	0.226
334.56	0.227
335.02	0.222
335.49	0.219
335.95	0.220
336.42	0.217
336.88	0.216
337.35	0.217
337.81	0.213
338.28	0.212
338.74	0.211
339.20	0.213
339.67	0.210
340.13	0.209
340.60	0.206
341.06	0.207
341.53	0.206
341.99	0.203
342.46	0.204
342.92	0.203
343.39	0.203
343.85	0.198
344.32	0.197
344.78	0.199
345.25	0.198
345.71	0.198
346.17	0.195
346.64	0.198
347.10	0.197
347.57	0.196
348.03	0.191
348.50	0.190
348.96	0.190
349.43	0.190
349.89	0.193
350.35	0.191
350.82	0.193
351.28	0.187
351.75	0.190
352.21	0.189
352.67	0.186
353.14	0.186
353.60	0.182
354.07	0.183
354.53	0.181
355.00	0.181
355.46	0.180
355.92	0.180
356.39	0.178
356.85	0.179
357.31	0.180
357.78	0.177
358.24	0.172
358.71	0.175
359.17	0.171
359.63	0.169
360.10	0.171
360.56	0.166
361.03	0.166
361.49	0.166
361.95	0.165
362.42	0.167
362.88	0.165
363.34	0.165
363.81	0.161
364.27	0.161
364.73	0.162
365.20	0.162
365.66	0.162
366.12	0.164
366.59	0.160
367.05	0.163
367.51	0.161
367.98	0.157
368.44	0.160
368.90	0.159
369.37	0.158
369.83	0.157
370.29	0.159
370.76	0.155
371.22	0.157
371.68	0.154
372.15	0.158
372.61	0.156
373.07	0.156
373.54	0.153
374.00	0.156
374.46	0.152
374.92	0.155
375.39	0.155
375.85	0.151
376.31	0.154
376.78	0.155
377.24	0.153
377.70	0.153
378.16	0.152
378.63	0.155
379.09	0.152
379.55	0.153
380.01	0.150
380.48	0.152
380.94	0.153
381.40	0.149
381.87	0.151
382.33	0.150
382.79	0.149
383.25	0.151
383.72	0.147
384.18	0.150
384.64	0.150
385.10	0.150
385.56	0.146
386.03	0.149
386.49	0.149
386.95	0.145
387.41	0.149
387.88	0.144
388.34	0.147
388.80	0.147
389.26	0.145
389.72	0.147
390.19	0.147
390.65	0.145
391.11	0.145
391.57	0.145
392.04	0.145
392.50	0.146
392.96	0.147
393.42	0.147
393.88	0.145
394.34	0.145
394.81	0.144
395.27	0.144
395.73	0.148
396.19	0.142
396.65	0.145
397.12	0.142
397.58	0.142
398.04	0.144
398.50	0.144
398.96	0.144
399.42	0.144
399.89	0.144
400.35	0.142
400.81	0.142
401.27	0.138
401.73	0.142
402.19	0.140
402.65	0.136
403.12	0.137
403.58	0.136
404.04	0.137
404.50	0.136
404.96	0.136
405.42	0.138
405.88	0.138
406.34	0.137
406.81	0.137
407.27	0.137
407.73	0.139
408.19	0.133
408.65	0.136
409.11	0.134
409.57	0.136
410.03	0.135
410.49	0.132
410.96	0.132
411.42	0.131
411.88	0.132
412.34	0.132
412.80	0.135
413.26	0.131
413.72	0.132
414.18	0.131
414.64	0.128
415.10	0.131
415.56	0.129
416.02	0.131
416.48	0.130
416.95	0.131
417.41	0.131
417.87	0.129
418.33	0.129
418.79	0.130
419.25	0.128
419.71	0.130
420.17	0.129
420.63	0.131
421.09	0.127
421.55	0.126
422.01	0.129
422.47	0.131
422.93	0.131
423.39	0.132
423.85	0.129
424.31	0.131
424.77	0.128
425.23	0.130
425.69	0.127
426.15	0.127
426.61	0.127
427.07	0.128
427.53	0.124
427.99	0.127
428.45	0.127
428.91	0.124
429.37	0.126
429.83	0.127
430.29	0.127
430.75	0.128
431.21	0.129
431.67	0.128
432.13	0.122
432.59	0.124
433.05	0.125
433.51	0.127
433.97	0.126
434.43	0.127
434.89	0.124
435.35	0.123
435.81	0.122
436.27	0.122
436.73	0.124
437.19	0.125
437.65	0.123
438.11	0.123
438.57	0.125
439.03	0.122
439.48	0.123
439.94	0.122
440.40	0.120
440.86	0.120
441.32	0.120
441.78	0.120
442.24	0.120
442.70	0.121
443.16	0.119
443.62	0.124
444.08	0.117
444.54	0.118
444.99	0.116
445.45	0.118
445.91	0.121
446.37	0.117
446.83	0.119
447.29	0.118
447.75	0.118
448.21	0.116
448.67	0.116
449.12	0.118
449.58	0.118
450.04	0.118
450.50	0.118
450.96	0.118
451.42	0.118
451.88	0.117
452.34	0.119
452.79	0.113
453.25	0.117
453.71	0.116
454.17	0.115
454.63	0.114
455.09	0.119
455.55	0.120
456.00	0.116
456.46	0.116
456.92	0.113
457.38	0.115
457.84	0.113
458.30	0.114
458.75	0.116
459.21	0.111
459.67	0.115
460.13	0.114
460.59	0.113
461.04	0.112
461.50	0.115
461.96	0.114
462.42	0.114
462.88	0.115
463.33	0.115
463.79	0.114
464.25	0.115
464.71	0.117
465.17	0.115
465.62	0.116
466.08	0.115
466.54	0.117
467.00	0.117
467.46	0.114
467.91	0.114
468.37	0.114
468.83	0.116
469.29	0.116
469.74	0.114
470.20	0.115
470.66	0.116
471.12	0.115
471.57	0.115
472.03	0.114
472.49	0.115
472.95	0.115
473.40	0.114
473.86	0.117
474.32	0.116
474.78	0.116
475.23	0.115
475.69	0.114
476.15	0.115
476.60	0.118
477.06	0.117
477.52	0.115
477.98	0.115
478.43	0.115
478.89	0.116
479.35	0.115
479.80	0.116
480.26	0.113
480.72	0.114
481.18	0.117
481.63	0.114
482.09	0.113
482.55	0.113
483.00	0.115
483.46	0.112
483.92	0.112
484.37	0.115
484.83	0.113
485.29	0.113
485.74	0.112
486.20	0.113
486.66	0.115
487.11	0.113
487.57	0.113
488.03	0.115
488.48	0.114
488.94	0.115
489.40	0.112
489.85	0.113
490.31	0.112
490.77	0.111
491.22	0.113
491.68	0.112
492.13	0.112
492.59	0.112
493.05	0.114
493.50	0.115
493.96	0.111
494.42	0.113
494.87	0.114
495.33	0.112
495.78	0.113
496.24	0.114
496.70	0.114
497.15	0.113
497.61	0.114
498.06	0.114
498.52	0.112
498.98	0.113
499.43	0.112
499.89	0.113
500.34	0.114
500.80	0.114
501.25	0.113
501.71	0.110
502.17	0.114
502.62	0.110
503.08	0.114
503.53	0.112
503.99	0.111
504.44	0.113
504.90	0.111
505.36	0.111
505.81	0.110
506.27	0.113
506.72	0.112
507.18	0.113
507.63	0.111
508.09	0.112
508.54	0.111
509.00	0.112
509.45	0.113
509.91	0.111
510.36	0.113
510.82	0.112
511.27	0.113
511.73	0.113
512.19	0.112
512.64	0.112
513.10	0.113
513.55	0.111
514.01	0.111
514.46	0.114
514.92	0.110
515.37	0.110
515.83	0.111
516.28	0.109
516.73	0.111
517.19	0.110
517.64	0.109
518.10	0.109
518.55	0.108
519.01	0.111
519.46	0.109
519.92	0.112
520.37	0.109
520.83	0.112
521.28	0.109
521.74	0.108
522.19	0.108
522.65	0.110
523.10	0.110
523.55	0.109
524.01	0.108
524.46	0.110
524.92	0.109
525.37	0.109
525.83	0.109
526.28	0.111
526.73	0.110
527.19	0.109
527.64	0.111
528.10	0.111
528.55	0.111
529.01	0.111
529.46	0.109
529.91	0.108
530.37	0.110
530.82	0.111
531.28	0.110
531.73	0.110
532.18	0.109
532.64	0.110
533.09	0.112
533.54	0.111
534.00	0.109
534.45	0.111
534.91	0.109
535.36	0.112
535.81	0.111
536.27	0.112
536.72	0.113
537.17	0.111
537.63	0.113
538.08	0.109
538.54	0.112
538.99	0.113
539.44	0.113
539.90	0.112
540.35	0.111
540.80	0.112
541.26	0.114
541.71	0.114
542.16	0.115
542.62	0.116
543.07	0.116
543.52	0.114
543.98	0.113
544.43	0.113
544.88	0.112
545.34	0.115
545.79	0.114
546.24	0.116
546.69	0.116
547.15	0.116
547.60	0.118
548.05	0.115
548.51	0.118
548.96	0.116
549.41	0.117
549.86	0.118
550.32	0.118
550.77	0.116
551.22	0.118
551.68	0.120
552.13	0.120
552.58	0.120
553.03	0.120
553.49	0.120
553.94	0.122
554.39	0.123
554.84	0.119
555.30	0.122
555.75	0.122
556.20	0.123
556.65	0.121
557.11	0.124
557.56	0.123
558.01	0.121
558.46	0.125
558.92	0.125
559.37	0.128
559.82	0.126
560.27	0.129
560.72	0.127
561.18	0.126
561.63	0.126
562.08	0.129
562.53	0.128
562.99	0.132
563.44	0.130
563.89	0.130
564.34	0.131
564.79	0.133
565.25	0.132
565.70	0.135
566.15	0.134
566.60	0.133
567.05	0.134
567.50	0.135
567.96	0.136
568.41	0.135
568.86	0.136
569.31	0.138
569.76	0.138
570.21	0.136
570.67	0.140
571.12	0.141
571.57	0.140
572.02	0.141
572.47	0.141
572.92	0.143
573.37	0.143
573.83	0.142
574.28	0.143
574.73	0.143
575.18	0.144
575.63	0.145
576.08	0.146
576.53	0.148
576.98	0.149
577.44	0.150
577.89	0.151
578.34	0.150
578.79	0.152
579.24	0.154
579.69	0.152
580.14	0.154
580.59	0.153
581.04	0.154
581.49	0.155
581.95	0.159
582.40	0.159
582.85	0.159
583.30	0.160
583.75	0.162
584.20	0.161
584.65	0.163
585.10	0.165
585.55	0.168
586.00	0.168
586.45	0.166
586.90	0.171
587.35	0.170
587.80	0.173
588.25	0.174
588.71	0.173
589.16	0.175
589.61	0.178
590.06	0.178
590.51	0.180
590.96	0.182
591.41	0.184
591.86	0.185
592.31	0.189
592.76	0.187
593.21	0.189
593.66	0.191
594.11	0.194
594.56	0.194
595.01	0.196
595.46	0.197
595.91	0.202
596.36	0.200
596.81	0.202
597.26	0.205
597.71	0.207
598.16	0.207
598.61	0.209
599.06	0.210
599.51	0.211
599.96	0.214
600.41	0.216
600.86	0.215
601.31	0.215
601.76	0.220
602.21	0.218
602.65	0.219
603.10	0.223
603.55	0.226
604.00	0.225
604.45	0.227
604.90	0.229
605.35	0.230
605.80	0.232
606.25	0.235
606.70	0.234
607.15	0.236
607.60	0.236
608.05	0.239
608.50	0.238
608.95	0.242
609.39	0.242
609.84	0.242
610.29	0.244
610.74	0.242
611.19	0.245
611.64	0.247
612.09	0.249
612.54	0.249
612.99	0.246
613.44	0.249
613.88	0.251
614.33	0.251
614.78	0.251
615.23	0.254
615.68	0.253
616.13	0.254
616.58	0.255
617.03	0.254
617.47	0.254
617.92	0.255
618.37	0.255
618.82	0.258
619.27	0.258
619.72	0.258
620.17	0.261
620.61	0.258
621.06	0.259
621.51	0.263
621.96	0.263
622.41	0.263
622.86	0.262
623.30	0.261
623.75	0.264
624.20	0.264
624.65	0.265
625.10	0.265
625.54	0.266
625.99	0.269
626.44	0.270
626.89	0.270
627.34	0.270
627.78	0.272
628.23	0.271
628.68	0.272
629.13	0.273
629.58	0.277
630.02	0.276
630.47	0.279
630.92	0.280
631.37	0.278
631.81	0.282
632.26	0.281
632.71	0.284
633.16	0.284
633.61	0.286
634.05	0.288
634.50	0.290
634.95	0.293
635.40	0.296
635.84	0.296
636.29	0.299
636.74	0.298
637.18	0.299
637.63	0.302
638.08	0.302
638.53	0.306
638.97	0.310
639.42	0.312
639.87	0.314
640.32	0.317
640.76	0.320
641.21	0.319
641.66	0.323
642.10	0.325
642.55	0.325
643.00	0.331
643.44	0.331
643.89	0.334
644.34	0.335
644.79	0.341
645.23	0.343
645.68	0.347
646.13	0.348
646.57	0.350
647.02	0.354
647.47	0.353
647.91	0.360
648.36	0.360
648.81	0.363
649.25	0.364
649.70	0.365
650.15	0.370
650.59	0.373
651.04	0.375
651.48	0.375
651.93	0.378
652.38	0.381
652.82	0.380
653.27	0.386
653.72	0.385
654.16	0.385
654.61	0.389
655.06	0.390
655.50	0.390
655.95	0.391
656.39	0.396
656.84	0.401
657.29	0.399
657.73	0.398
658.18	0.403
658.62	0.404
659.07	0.406
659.52	0.404
659.96	0.406
660.41	0.405
660.85	0.406
661.30	0.409
661.74	0.410
662.19	0.407
662.64	0.409
663.08	0.413
663.53	0.411
663.97	0.410
664.42	0.410
664.86	0.409
665.31	0.410
665.75	0.411
666.20	0.406
666.65	0.407
667.09	0.407
667.54	0.404
667.98	0.402
668.43	0.404
668.87	0.398
669.32	0.396
669.76	0.392
670.21	0.392
670.65	0.388
671.10	0.387
671.54	0.382
671.99	0.378
672.43	0.372
672.88	0.369
673.32	0.364
673.77	0.359
674.21	0.355
674.66	0.350
675.10	0.344
675.55	0.340
675.99	0.333
676.44	0.328
676.88	0.324
677.33	0.318
677.77	0.311
678.22	0.301
678.66	0.299
679.11	0.293
679.55	0.285
679.99	0.280
680.44	0.273
680.88	0.267
681.33	0.260
681.77	0.254
682.22	0.246
682.66	0.241
683.11	0.234
683.55	0.227
683.99	0.222
684.44	0.216
684.88	0.213
685.33	0.205
685.77	0.201
686.21	0.198
686.66	0.189
687.10	0.186
687.55	0.181
687.99	0.177
688.44	0.173
688.88	0.169
689.32	0.165
689.77	0.159
690.21	0.154
690.65	0.154
691.10	0.149
691.54	0.144
691.99	0.142
692.43	0.138
692.87	0.136
693.32	0.132
693.76	0.128
694.20	0.130
694.65	0.124
695.09	0.123
695.53	0.121
695.98	0.120
696.42	0.116
696.86	0.112
697.31	0.112
697.75	0.112
698.19	0.107
698.64	0.106
699.08	0.107
699.52	0.104
699.97	0.103
700.41	0.103
700.85	0.101
701.30	0.098
701.74	0.096
702.18	0.099
702.63	0.096
703.07	0.091
703.51	0.096
703.96	0.094
704.40	0.093
704.84	0.091
705.28	0.091
705.73	0.091
706.17	0.091
706.61	0.088
707.06	0.088
707.50	0.088
707.94	0.085
708.38	0.089
708.83	0.085
709.27	0.085
709.71	0.084
710.15	0.085
710.60	0.085
711.04	0.084
711.48	0.085
711.92	0.086
712.37	0.082
712.81	0.080
713.25	0.081
713.69	0.084
714.13	0.078
714.58	0.079
715.02	0.080
715.46	0.078
715.90	0.079
716.35	0.082
716.79	0.080
717.23	0.082
717.67	0.083
718.11	0.078
718.56	0.080
719.00	0.081
719.44	0.083
719.88	0.079
720.32	0.078
720.76	0.080
721.21	0.080
721.65	0.079
722.09	0.081
722.53	0.080
722.97	0.080
723.41	0.078
723.86	0.082
724.30	0.080
724.74	0.081
725.18	0.080
725.62	0.082
726.06	0.083
726.50	0.079
726.95	0.080
727.39	0.079
727.83	0.079
728.27	0.080
728.71	0.081
729.15	0.081
729.59	0.080
730.03	0.082
730.48	0.083
730.92	0.079
731.36	0.079
731.80	0.079
732.24	0.081
732.68	0.083
733.12	0.081
733.56	0.081
734.00	0.082
734.44	0.081
734.89	0.083
735.33	0.084
735.77	0.083
736.21	0.081
736.65	0.081
737.09	0.082
737.53	0.084
737.97	0.084
738.41	0.082
738.85	0.086
739.29	0.083
739.73	0.082
740.17	0.081
740.61	0.081
741.05	0.081
741.49	0.082
741.93	0.080
742.37	0.081
742.81	0.085
743.26	0.081
743.70	0.083
744.14	0.085
744.58	0.085
745.02	0.081
745.46	0.082
745.90	0.084
746.34	0.083
746.78	0.081
747.22	0.082
747.66	0.082
748.10	0.082
748.54	0.081
748.98	0.082
749.42	0.082
749.86	0.082
750.29	0.081
750.73	0.082
751.17	0.081
751.61	0.080
752.05	0.082
752.49	0.080
752.93	0.080
753.37	0.083
753.81	0.083
754.25	0.079
754.69	0.080
755.13	0.081
755.57	0.081
756.01	0.080
756.45	0.081
756.89	0.082
757.33	0.080
757.77	0.077
758.21	0.081
758.64	0.081
759.08	0.077
759.52	0.079
759.96	0.079
760.40	0.079
760.84	0.080
761.28	0.080
761.72	0.080
762.16	0.080
762.60	0.081
763.03	0.079
763.47	0.079
763.91	0.079
764.35	0.081
764.79	0.081
765.23	0.078
765.67	0.083
766.11	0.080
766.54	0.079
766.98	0.081
767.42	0.078
767.86	0.078
768.30	0.077
768.74	0.079
769.17	0.079
769.61	0.081
770.05	0.080
770.49	0.078
770.93	0.082
771.37	0.080
771.80	0.079
772.24	0.081
772.68	0.082
773.12	0.079
773.56	0.081
774.00	0.082
774.43	0.081
774.87	0.079
775.31	0.080
775.75	0.079
776.19	0.079
776.62	0.078
777.06	0.077
777.50	0.081
777.94	0.079
778.37	0.078
778.81	0.081
779.25	0.082
779.69	0.080
780.13	0.077
780.56	0.080
781.00	0.083
781.44	0.077
781.88	0.082
782.31	0.078
782.75	0.082
783.19	0.077
783.63	0.079
784.06	0.078
784.50	0.077
784.94	0.078
785.37	0.079
785.81	0.080
786.25	0.079
786.69	0.080
787.12	0.083
787.56	0.080
788.00	0.075
788.43	0.079
788.87	0.080
789.31	0.079
789.75	0.083
790.18	0.080
790.62	0.077
791.06	0.076
791.49	0.077
791.93	0.081
792.37	0.076
792.80	0.080
793.24	0.077
793.68	0.077
794.11	0.073
794.55	0.077
794.99	0.080
795.42	0.074
795.86	0.081
796.30	0.081
796.73	0.078
797.17	0.079
797.61	0.080
798.04	0.081
798.48	0.080
798.91	0.078
799.35	0.082
799.79	0.079
800.22	0.076
800.66	0.077
801.10	0.078
801.53	0.083
801.97	0.080
802.40	0.076
802.84	0.080
803.28	0.078
803.71	0.076
804.15	0.078
804.58	0.080
805.02	0.077
805.46	0.077
805.89	0.081
806.33	0.077
806.76	0.078
807.20	0.075
807.63	0.077
808.07	0.077
808.51	0.072
808.94	0.076
809.38	0.078
809.81	0.074
810.25	0.078
810.68	0.079
811.12	0.075
811.55	0.075
811.99	0.073
812.42	0.075
812.86	0.079
813.29	0.077
813.73	0.075
814.17	0.078
814.60	0.077
815.04	0.076
815.47	0.076
815.91	0.073
816.34	0.077
816.78	0.076
817.21	0.075
817.65	0.074
818.08	0.075
818.52	0.082
818.95	0.079
819.39	0.078
819.82	0.074
820.25	0.076
820.69	0.076
821.12	0.074
821.56	0.078
821.99	0.079
822.43	0.076
822.86	0.072
823.30	0.080
823.73	0.075
824.17	0.074
824.60	0.078
825.04	0.075
825.47	0.078
825.90	0.078
826.34	0.077
826.77	0.080
827.21	0.079
827.64	0.078
828.08	0.081
828.51	0.076
828.94	0.078
829.38	0.083
829.81	0.080
830.25	0.079
830.68	0.081
831.11	0.083
831.55	0.085
831.98	0.077
832.42	0.080
832.85	0.087
833.28	0.084
833.72	0.080
834.15	0.084
834.58	0.083
835.02	0.085
835.45	0.077
835.88	0.080
836.32	0.085
836.75	0.078
837.19	0.082
837.62	0.086
838.05	0.085
838.49	0.085
838.92	0.088
839.35	0.086
839.79	0.084
840.22	0.082
840.65	0.085
841.09	0.086
841.52	0.082
841.95	0.083
842.39	0.079
842.82	0.089
843.25	0.083
843.68	0.092
844.12	0.088
844.55	0.082
844.98	0.088
845.42	0.087
845.85	0.086
846.28	0.083
846.71	0.083
847.15	0.092
847.58	0.089
848.01	0.079
848.45	0.085
848.88	0.088
849.31	0.084
849.74	0.084
850.18	0.095
850.61	0.085
851.04	0.089
851.47	0.086
851.91	0.085
852.34	0.084
852.77	0.085
853.20	0.094
853.64	0.088
854.07	0.083
854.50	0.086
854.93	0.088
855.36	0.078
855.80	0.080
856.23	0.086
856.66	0.088
857.09	0.088
857.52	0.087
857.96	0.090
858.39	0.087
858.82	0.086
859.25	0.090
859.68	0.087
860.12	0.076
860.55	0.088
860.98	0.099
861.41	0.085
861.84	0.087
862.27	0.088
862.71	0.088
863.14	0.089
863.57	0.081
864.00	0.092
864.43	0.093
864.86	0.081
865.30	0.085
865.73	0.086
866.16	0.086
866.59	0.085
867.02	0.084
867.45	0.085
867.88	0.089
868.31	0.085
868.75	0.091
869.18	0.093
869.61	0.089
870.04	0.090
870.47	0.085
870.90	0.091
871.33	0.093
871.76	0.089
872.19	0.092
872.62	0.095
873.06	0.083
873.49	0.097
873.92	0.090
874.35	0.092
874.78	0.091
875.21	0.097
875.64	0.093
876.07	0.087
876.50	0.095
876.93	0.095
877.36	0.092
877.79	0.097
878.22	0.095
878.65	0.097
879.08	0.091
879.51	0.094
879.94	0.098
880.37	0.090
880.80	0.094
881.23	0.089
881.67	0.100
882.10	0.087
882.53	0.089
882.96	0.091
883.39	0.097
883.82	0.091
884.25	0.087
884.68	0.099
885.11	0.097
885.54	0.100
885.97	0.092
886.39	0.096
886.82	0.099
887.25	0.093
887.68	0.104
888.11	0.092
888.54	0.095
888.97	0.098
889.40	0.095
889.83	0.097
890.26	0.093
890.69	0.093
891.12	0.096
891.55	0.096
891.98	0.093
892.41	0.096
892.84	0.103
893.27	0.091
893.70	0.095
894.13	0.100
894.56	0.094
894.98	0.097
895.41	0.098
895.84	0.102
896.27	0.098
896.70	0.099
897.13	0.101
897.56	0.096
897.99	0.094
898.42	0.101
898.85	0.103
899.27	0.094
899.70	0.096
900.13	0.097
900.56	0.104
900.99	0.096
901.42	0.105
901.85	0.101
902.28	0.101
902.70	0.098
903.13	0.099
903.56	0.101
903.99	0.098
904.42	0.095
904.85	0.098
905.27	0.099
905.70	0.103
906.13	0.095
906.56	0.098
906.99	0.098
907.42	0.099
907.84	0.097
908.27	0.097
908.70	0.101
909.13	0.099
909.56	0.105
909.98	0.097
910.41	0.097
910.84	0.099
911.27	0.101
911.70	0.103
912.12	0.099
912.55	0.102
912.98	0.102
913.41	0.097
913.84	0.101
914.26	0.106
914.69	0.100
915.12	0.100
915.55	0.095
915.97	0.103
916.40	0.100
916.83	0.094
917.26	0.101
917.68	0.104
918.11	0.100
918.54	0.099
918.97	0.105
919.39	0.103
919.82	0.102
920.25	0.101
920.67	0.103
921.10	0.105
921.53	0.103
921.96	0.104
922.38	0.104
922.81	0.102
923.24	0.104
923.66	0.106
924.09	0.104
924.52	0.110
924.94	0.106
925.37	0.109
925.80	0.107
926.22	0.108
926.65	0.107
927.08	0.111
927.50	0.112
927.93	0.117
928.36	0.114
928.78	0.111
929.21	0.112
929.64	0.112
930.06	0.113
930.49	0.118
930.92	0.114
931.34	0.119
931.77	0.118
932.20	0.117
932.62	0.119
933.05	0.122
933.47	0.123
933.90	0.121
934.33	0.124
934.75	0.128
935.18	0.126
935.61	0.125
936.03	0.133
936.46	0.132
936.88	0.136
937.31	0.138
937.73	0.139
938.16	0.141
938.59	0.142
939.01	0.135
939.44	0.146
939.86	0.144
940.29	0.147
940.71	0.156
941.14	0.159
941.57	0.149
941.99	0.160
942.42	0.160
942.84	0.156
943.27	0.163
943.69	0.164
944.12	0.162
944.54	0.167
944.97	0.176
945.39	0.172
945.82	0.169
946.24	0.167
946.67	0.176
947.09	0.177
947.52	0.173
947.94	0.189
948.37	0.188
948.79	0.193
949.22	0.192
949.64	0.193
950.07	0.191
950.49	0.193
950.92	0.196
951.34	0.205
951.77	0.210
952.19	0.202
952.62	0.206
953.04	0.208
953.47	0.216
953.89	0.219
954.32	0.218
954.74	0.227
955.17	0.231
955.59	0.223
956.01	0.239
956.44	0.240
956.86	0.231
957.29	0.241
957.71	0.248
958.14	0.243
958.56	0.252
958.98	0.247
959.41	0.257
959.83	0.258
960.26	0.255
960.68	0.262
961.10	0.257
961.53	0.253
961.95	0.260
962.38	0.266
962.80	0.260
963.22	0.266
963.65	0.270
964.07	0.263
964.50	0.265
964.92	0.259
965.34	0.269
965.77	0.266
966.19	0.257
966.61	0.270
967.04	0.274
967.46	0.271
967.88	0.266
968.31	0.267
968.73	0.269
969.15	0.267
969.58	0.267
970.00	0.274
970.42	0.274
970.85	0.263
971.27	0.271
971.69	0.286
972.12	0.277
972.54	0.276
972.96	0.276
973.39	0.276
973.81	0.267
974.23	0.270
974.65	0.279
975.08	0.271
975.50	0.273
975.92	0.275
976.35	0.270
976.77	0.267
977.19	0.270
977.61	0.273
978.04	0.272
978.46	0.272
978.88	0.276
979.30	0.287
979.73	0.281
980.15	0.269
980.57	0.283
980.99	0.280
981.42	0.277
981.84	0.277
982.26	0.279
982.68	0.276
983.11	0.271
983.53	0.282
983.95	0.273
984.37	0.275
984.79	0.265
985.22	0.277
985.64	0.276
986.06	0.268
986.48	0.266
986.90	0.271
987.33	0.266
987.75	0.259
988.17	0.265
988.59	0.270
989.01	0.268
989.43	0.262
989.86	0.269
990.28	0.265
990.70	0.265
991.12	0.262
991.54	0.259
991.96	0.258
992.39	0.265
992.81	0.261
993.23	0.259
993.65	0.265
994.07	0.252
994.49	0.263
994.91	0.258
995.34	0.254
995.76	0.253
996.18	0.255
996.60	0.248
997.02	0.257
997.44	0.252
997.86	0.260
998.28	0.247
998.70	0.250
999.12	0.258
999.55	0.248
999.97	0.246
1000.39	0.258
1000.81	0.257
1001.23	0.248
1001.65	0.254
1002.07	0.245
1002.49	0.238
1002.91	0.247
1003.33	0.234
1003.75	0.247
1004.17	0.240
1004.59	0.236
1005.01	0.241
1005.43	0.247
1005.85	0.238
1006.28	0.236
1006.70	0.234
1007.12	0.236
1007.54	0.234
1007.96	0.232
1008.38	0.233
1008.80	0.227
1009.22	0.230
1009.64	0.235
1010.06	0.237
1010.48	0.218
1010.90	0.222
1011.32	0.234
1011.74	0.224
1012.16	0.218
1012.58	0.226
1013.00	0.224
1013.42	0.217
1013.84	0.203
1014.26	0.227
1014.67	0.234
1015.09	0.207
1015.51	0.204
1015.93	0.212
1016.35	0.222
1016.77	0.218
1017.19	0.209
1017.61	0.206
1018.03	0.199
1018.45	0.213
1018.87	0.214
1019.29	0.211
1019.71	0.204
1020.13	0.216
1020.55	0.213
1020.97	0.192
1021.38	0.216
1021.80	0.201
1022.22	0.216
1022.64	0.190
1023.06	0.194
1023.48	0.202
1023.90	0.197
1024.32	0.185
1024.74	0.202
1025.15	0.195
1025.57	0.194
1025.99	0.191
1026.41	0.188
1026.83	0.198
1027.25	0.188
1027.67	0.181
1028.08	0.196
1028.50	0.193
1028.92	0.178
1029.34	0.184
1029.76	0.184
1030.18	0.178
1030.60	0.175
1031.01	0.166
1031.43	0.187
1031.85	0.174
1032.27	0.174
1032.69	0.182
1033.10	0.183
1033.52	0.168
1033.94	0.181
1034.36	0.178
1034.78	0.168
1035.19	0.175
1035.61	0.173
1036.03	0.176
1036.45	0.179
1036.87	0.153
1037.28	0.172
1037.70	0.155
1038.12	0.141
1038.54	0.160
1038.95	0.165
1039.37	0.151
1039.79	0.164
1040.21	0.182
1040.62	0.168
1041.04	0.159
1041.46	0.146
1041.88	0.164
1042.29	0.165
1042.71	0.144
1043.13	0.157
1043.55	0.156
1043.96	0.126
1044.38	0.155
1044.80	0.169
1045.21	0.146
1045.63	0.137
1046.05	0.150
1046.47	0.150
1046.88	0.139
1047.30	0.140
1047.72	0.170
1048.13	0.158
1048.55	0.130
1048.97	0.162
1049.38	0.155
1049.80	0.153
1050.22	0.147
1050.63	0.132
1051.05	0.143
1051.47	0.152
1051.88	0.143
1052.30	0.151
1052.72	0.158
1053.13	0.148
1053.55	0.159
1053.97	0.131
1054.38	0.148
1054.80	0.152
1055.21	0.138
1055.63	0.155
1056.05	0.171
1056.46	0.111
1056.88	0.200
1057.29	0.151
1057.71	0.116
1058.13	0.178
1058.54	0.139
1058.96	0.117
1059.37	0.197
1059.79	0.169
1060.21	0.167
1060.62	0.190
1061.04	0.143
1061.45	0.182
1061.87	0.124
1062.28	0.159
1062.70	0.171
1063.12	0.189
1063.53	0.140
1063.95	0.161
1064.36	0.182
1064.78	0.190
1065.19	0.145
1065.61	0.090
1066.02	0.292
1066.44	0.178
1066.85	0.150
1067.27	0.226
1067.68	0.210
1068.10	0.200
1068.51	0.227
1068.93	0.133
1069.35	0.232
1069.76	0.208
1070.17	0.186
1070.59	0.332
1071.00	0.300
1071.42	0.148
1071.83	0.348
1072.25	0.152
1072.66	0.151
1073.08	0.223
1073.49	0.278
1073.91	0.151
1074.32	0.212
1074.74	0.170
1075.15	0.328
1075.57	0.444
1075.98	0.061
1076.40	0.623
1076.81	0.257
1077.22	0.276
1077.64	0.558
1078.05	0.385
1078.47	0.252
1078.88	0.187
1079.30	0.176
1079.71	0.420
1080.12	0.330
1080.54	0.046
1080.95	0.356
1081.37	0.218
1081.78	0.240
1082.19	1.881
1082.61	0.391
1083.02	0.122
1083.44	1.068
1083.85	0.602
1084.26	0.922
1084.68	0.421
1085.09	0.181
1085.50	-0.000
1085.92	0.545
1086.33	0.127
1086.74	0.585
1087.16	1.585
1087.57	0.330
1087.98	0.906
1088.40	0.166
1088.81	0.535
1089.22	0.468
1089.64	0.622
1090.05	-0.000
1090.46	0.404
1090.88	0.198
1091.29	0.432
1091.70	0.291
1092.12	0.334
1092.53	-0.000
1092.94	-0.000
1093.36	1.431
1093.77	-0.000
1094.18	0.252
1094.59	0.243
1095.01	0.746
1095.42	0.049
1095.83	0.391
1096.25	1.158
1096.66	-0.000
1097.07	0.129
1097.48	0.303
1097.90	-0.000
1098.31	0.432
1098.72	0.543
1099.13	0.765
>>>>>End Processed Spectral Data<<<<<
