SpectraSuite Data File
++++++++++++++++++++++++++++++++++++
Date: Tue Jul 11 14:56:29 CEST 2017
User: IPCE
Dark Spectrum Present: Yes
Reference Spectrum Present: Yes
Number of Sampled Component Spectra: 1
Spectrometers: HR+C0708
Integration Time (usec): 1000 (HR+C0708)
Spectra Averaged: 10 (HR+C0708)
Boxcar Smoothing: 0 (HR+C0708)
Correct for Electrical Dark: No (HR+C0708)
Strobe/Lamp Enabled: No (HR+C0708)
Correct for Detector Non-linearity: No (HR+C0708)
Correct for Stray Light: No (HR+C0708)
Number of Pixels in Processed Spectrum: 2048
>>>>>Begin Processed Spectral Data<<<<<
188.76	0.725
189.23	0.832
189.70	0.555
190.17	1.054
190.64	0.503
191.12	0.301
191.59	0.810
192.06	0.366
192.53	0.656
193.01	0.444
193.48	0.431
193.95	-0.000
194.42	0.502
194.90	0.562
195.37	0.451
195.84	1.037
196.31	1.482
196.78	1.190
197.26	0.833
197.73	0.825
198.20	0.471
198.67	-0.000
199.14	-0.000
199.62	0.681
200.09	0.269
200.56	0.245
201.03	0.342
201.50	0.413
201.97	0.399
202.45	0.592
202.92	0.562
203.39	0.535
203.86	0.570
204.33	0.312
204.80	0.316
205.28	0.227
205.75	0.438
206.22	0.402
206.69	0.297
207.16	0.306
207.63	0.584
208.11	0.520
208.58	0.369
209.05	0.561
209.52	0.329
209.99	0.449
210.46	0.364
210.93	0.317
211.41	0.411
211.88	0.397
212.35	0.416
212.82	0.359
213.29	0.411
213.76	0.453
214.23	0.383
214.70	0.496
215.18	0.496
215.65	0.489
216.12	0.568
216.59	0.454
217.06	0.681
217.53	0.376
218.00	0.357
218.47	0.518
218.94	0.391
219.41	0.454
219.89	0.441
220.36	0.600
220.83	0.708
221.30	0.603
221.77	0.463
222.24	0.689
222.71	0.472
223.18	0.527
223.65	0.683
224.12	0.638
224.59	0.494
225.06	0.547
225.54	0.575
226.01	0.697
226.48	0.720
226.95	0.870
227.42	0.888
227.89	0.816
228.36	1.068
228.83	1.036
229.30	0.997
229.77	1.190
230.24	1.390
230.71	1.375
231.18	1.299
231.65	1.285
232.12	1.383
232.59	1.367
233.06	1.283
233.53	1.441
234.00	1.362
234.47	1.498
234.94	1.575
235.41	1.777
235.88	1.808
236.35	1.772
236.82	1.828
237.29	1.793
237.76	1.942
238.23	1.894
238.70	1.851
239.17	2.037
239.64	2.198
240.11	2.034
240.58	1.923
241.05	2.051
241.52	2.170
241.99	2.038
242.46	2.146
242.93	2.149
243.40	2.164
243.87	2.296
244.34	2.301
244.81	2.221
245.28	2.137
245.75	2.330
246.22	2.255
246.69	2.201
247.16	2.307
247.63	2.425
248.10	2.350
248.57	2.250
249.04	2.202
249.51	2.298
249.98	2.361
250.45	2.145
250.92	2.137
251.39	2.094
251.85	1.961
252.32	1.877
252.79	1.763
253.26	1.675
253.73	1.583
254.20	1.489
254.67	1.410
255.14	1.328
255.61	1.261
256.08	1.224
256.55	1.165
257.02	1.109
257.49	1.066
257.95	1.022
258.42	0.997
258.89	0.966
259.36	0.941
259.83	0.914
260.30	0.894
260.77	0.873
261.24	0.851
261.71	0.834
262.17	0.819
262.64	0.806
263.11	0.791
263.58	0.773
264.05	0.760
264.52	0.749
264.99	0.738
265.46	0.727
265.92	0.715
266.39	0.705
266.86	0.695
267.33	0.687
267.80	0.677
268.27	0.670
268.74	0.663
269.20	0.653
269.67	0.647
270.14	0.639
270.61	0.633
271.08	0.625
271.55	0.618
272.01	0.610
272.48	0.604
272.95	0.601
273.42	0.598
273.89	0.589
274.36	0.581
274.82	0.577
275.29	0.574
275.76	0.570
276.23	0.565
276.70	0.558
277.16	0.558
277.63	0.557
278.10	0.548
278.57	0.545
279.04	0.542
279.50	0.541
279.97	0.540
280.44	0.535
280.91	0.532
281.38	0.532
281.84	0.531
282.31	0.526
282.78	0.526
283.25	0.522
283.72	0.521
284.18	0.523
284.65	0.525
285.12	0.517
285.59	0.520
286.05	0.519
286.52	0.517
286.99	0.518
287.46	0.519
287.92	0.515
288.39	0.515
288.86	0.517
289.33	0.511
289.79	0.511
290.26	0.509
290.73	0.510
291.20	0.502
291.66	0.507
292.13	0.500
292.60	0.498
293.07	0.495
293.53	0.493
294.00	0.486
294.47	0.481
294.93	0.476
295.40	0.474
295.87	0.465
296.34	0.464
296.80	0.453
297.27	0.447
297.74	0.439
298.20	0.433
298.67	0.430
299.14	0.421
299.60	0.416
300.07	0.408
300.54	0.404
301.01	0.398
301.47	0.388
301.94	0.379
302.41	0.377
302.87	0.366
303.34	0.361
303.81	0.361
304.27	0.350
304.74	0.344
305.21	0.341
305.67	0.339
306.14	0.335
306.61	0.325
307.07	0.325
307.54	0.318
308.01	0.313
308.47	0.309
308.94	0.307
309.40	0.302
309.87	0.300
310.34	0.298
310.80	0.297
311.27	0.293
311.74	0.287
312.20	0.287
312.67	0.285
313.13	0.283
313.60	0.279
314.07	0.278
314.53	0.276
315.00	0.275
315.47	0.273
315.93	0.275
316.40	0.273
316.86	0.267
317.33	0.269
317.80	0.268
318.26	0.266
318.73	0.264
319.19	0.263
319.66	0.262
320.13	0.261
320.59	0.259
321.06	0.257
321.52	0.257
321.99	0.256
322.45	0.254
322.92	0.255
323.39	0.251
323.85	0.249
324.32	0.247
324.78	0.247
325.25	0.245
325.71	0.244
326.18	0.247
326.64	0.244
327.11	0.242
327.58	0.244
328.04	0.239
328.51	0.237
328.97	0.238
329.44	0.237
329.90	0.234
330.37	0.231
330.83	0.230
331.30	0.231
331.76	0.230
332.23	0.228
332.69	0.227
333.16	0.222
333.62	0.225
334.09	0.224
334.56	0.222
335.02	0.218
335.49	0.216
335.95	0.217
336.42	0.216
336.88	0.211
337.35	0.212
337.81	0.210
338.28	0.206
338.74	0.209
339.20	0.206
339.67	0.208
340.13	0.206
340.60	0.205
341.06	0.204
341.53	0.202
341.99	0.199
342.46	0.198
342.92	0.198
343.39	0.200
343.85	0.196
344.32	0.196
344.78	0.196
345.25	0.194
345.71	0.197
346.17	0.195
346.64	0.195
347.10	0.193
347.57	0.192
348.03	0.191
348.50	0.185
348.96	0.192
349.43	0.188
349.89	0.193
350.35	0.188
350.82	0.192
351.28	0.183
351.75	0.185
352.21	0.184
352.67	0.185
353.14	0.187
353.60	0.181
354.07	0.180
354.53	0.179
355.00	0.178
355.46	0.178
355.92	0.175
356.39	0.176
356.85	0.175
357.31	0.178
357.78	0.169
358.24	0.171
358.71	0.173
359.17	0.171
359.63	0.170
360.10	0.173
360.56	0.168
361.03	0.169
361.49	0.164
361.95	0.163
362.42	0.166
362.88	0.165
363.34	0.165
363.81	0.162
364.27	0.161
364.73	0.163
365.20	0.162
365.66	0.159
366.12	0.161
366.59	0.158
367.05	0.162
367.51	0.159
367.98	0.159
368.44	0.159
368.90	0.158
369.37	0.157
369.83	0.159
370.29	0.156
370.76	0.157
371.22	0.156
371.68	0.154
372.15	0.154
372.61	0.155
373.07	0.158
373.54	0.155
374.00	0.156
374.46	0.155
374.92	0.156
375.39	0.155
375.85	0.152
376.31	0.155
376.78	0.152
377.24	0.154
377.70	0.154
378.16	0.153
378.63	0.152
379.09	0.151
379.55	0.152
380.01	0.149
380.48	0.149
380.94	0.151
381.40	0.150
381.87	0.150
382.33	0.151
382.79	0.151
383.25	0.151
383.72	0.151
384.18	0.148
384.64	0.148
385.10	0.149
385.56	0.147
386.03	0.149
386.49	0.147
386.95	0.146
387.41	0.148
387.88	0.145
388.34	0.147
388.80	0.146
389.26	0.144
389.72	0.148
390.19	0.147
390.65	0.144
391.11	0.146
391.57	0.147
392.04	0.144
392.50	0.145
392.96	0.144
393.42	0.148
393.88	0.144
394.34	0.146
394.81	0.143
395.27	0.142
395.73	0.147
396.19	0.142
396.65	0.143
397.12	0.142
397.58	0.143
398.04	0.142
398.50	0.144
398.96	0.143
399.42	0.143
399.89	0.143
400.35	0.141
400.81	0.142
401.27	0.140
401.73	0.142
402.19	0.139
402.65	0.138
403.12	0.140
403.58	0.136
404.04	0.136
404.50	0.137
404.96	0.135
405.42	0.137
405.88	0.140
406.34	0.137
406.81	0.136
407.27	0.133
407.73	0.138
408.19	0.133
408.65	0.134
409.11	0.136
409.57	0.136
410.03	0.134
410.49	0.132
410.96	0.130
411.42	0.134
411.88	0.132
412.34	0.132
412.80	0.134
413.26	0.132
413.72	0.133
414.18	0.132
414.64	0.130
415.10	0.131
415.56	0.131
416.02	0.128
416.48	0.129
416.95	0.131
417.41	0.130
417.87	0.130
418.33	0.129
418.79	0.129
419.25	0.128
419.71	0.129
420.17	0.129
420.63	0.129
421.09	0.128
421.55	0.128
422.01	0.131
422.47	0.132
422.93	0.131
423.39	0.132
423.85	0.131
424.31	0.127
424.77	0.127
425.23	0.128
425.69	0.127
426.15	0.126
426.61	0.126
427.07	0.129
427.53	0.127
427.99	0.128
428.45	0.125
428.91	0.126
429.37	0.126
429.83	0.127
430.29	0.128
430.75	0.130
431.21	0.127
431.67	0.126
432.13	0.126
432.59	0.124
433.05	0.125
433.51	0.125
433.97	0.125
434.43	0.130
434.89	0.125
435.35	0.124
435.81	0.122
436.27	0.123
436.73	0.127
437.19	0.125
437.65	0.124
438.11	0.121
438.57	0.125
439.03	0.121
439.48	0.122
439.94	0.122
440.40	0.120
440.86	0.119
441.32	0.119
441.78	0.118
442.24	0.122
442.70	0.121
443.16	0.117
443.62	0.123
444.08	0.119
444.54	0.120
444.99	0.117
445.45	0.125
445.91	0.118
446.37	0.119
446.83	0.121
447.29	0.120
447.75	0.117
448.21	0.116
448.67	0.116
449.12	0.118
449.58	0.118
450.04	0.119
450.50	0.120
450.96	0.117
451.42	0.117
451.88	0.117
452.34	0.117
452.79	0.115
453.25	0.118
453.71	0.116
454.17	0.114
454.63	0.114
455.09	0.119
455.55	0.119
456.00	0.116
456.46	0.114
456.92	0.110
457.38	0.115
457.84	0.113
458.30	0.112
458.75	0.117
459.21	0.114
459.67	0.117
460.13	0.112
460.59	0.114
461.04	0.112
461.50	0.113
461.96	0.114
462.42	0.116
462.88	0.115
463.33	0.114
463.79	0.117
464.25	0.115
464.71	0.115
465.17	0.116
465.62	0.117
466.08	0.116
466.54	0.117
467.00	0.117
467.46	0.112
467.91	0.112
468.37	0.116
468.83	0.116
469.29	0.115
469.74	0.115
470.20	0.116
470.66	0.116
471.12	0.116
471.57	0.115
472.03	0.115
472.49	0.116
472.95	0.114
473.40	0.117
473.86	0.117
474.32	0.118
474.78	0.116
475.23	0.114
475.69	0.115
476.15	0.114
476.60	0.116
477.06	0.115
477.52	0.114
477.98	0.114
478.43	0.113
478.89	0.115
479.35	0.114
479.80	0.115
480.26	0.112
480.72	0.114
481.18	0.116
481.63	0.114
482.09	0.113
482.55	0.116
483.00	0.115
483.46	0.112
483.92	0.110
484.37	0.115
484.83	0.113
485.29	0.112
485.74	0.113
486.20	0.114
486.66	0.118
487.11	0.114
487.57	0.114
488.03	0.115
488.48	0.112
488.94	0.115
489.40	0.114
489.85	0.115
490.31	0.113
490.77	0.112
491.22	0.114
491.68	0.112
492.13	0.114
492.59	0.114
493.05	0.112
493.50	0.114
493.96	0.111
494.42	0.113
494.87	0.115
495.33	0.113
495.78	0.112
496.24	0.112
496.70	0.113
497.15	0.114
497.61	0.113
498.06	0.112
498.52	0.112
498.98	0.112
499.43	0.111
499.89	0.111
500.34	0.113
500.80	0.112
501.25	0.114
501.71	0.111
502.17	0.113
502.62	0.110
503.08	0.113
503.53	0.113
503.99	0.113
504.44	0.113
504.90	0.110
505.36	0.113
505.81	0.109
506.27	0.113
506.72	0.112
507.18	0.112
507.63	0.110
508.09	0.111
508.54	0.112
509.00	0.113
509.45	0.112
509.91	0.112
510.36	0.112
510.82	0.111
511.27	0.112
511.73	0.114
512.19	0.111
512.64	0.111
513.10	0.110
513.55	0.110
514.01	0.111
514.46	0.113
514.92	0.111
515.37	0.110
515.83	0.110
516.28	0.110
516.73	0.114
517.19	0.112
517.64	0.111
518.10	0.111
518.55	0.109
519.01	0.110
519.46	0.112
519.92	0.111
520.37	0.111
520.83	0.112
521.28	0.109
521.74	0.109
522.19	0.107
522.65	0.110
523.10	0.111
523.55	0.109
524.01	0.107
524.46	0.110
524.92	0.108
525.37	0.110
525.83	0.110
526.28	0.111
526.73	0.111
527.19	0.111
527.64	0.110
528.10	0.109
528.55	0.111
529.01	0.113
529.46	0.110
529.91	0.110
530.37	0.108
530.82	0.109
531.28	0.110
531.73	0.109
532.18	0.110
532.64	0.110
533.09	0.110
533.54	0.111
534.00	0.112
534.45	0.108
534.91	0.110
535.36	0.111
535.81	0.111
536.27	0.111
536.72	0.113
537.17	0.112
537.63	0.110
538.08	0.112
538.54	0.112
538.99	0.114
539.44	0.113
539.90	0.112
540.35	0.112
540.80	0.113
541.26	0.114
541.71	0.116
542.16	0.114
542.62	0.114
543.07	0.114
543.52	0.113
543.98	0.113
544.43	0.114
544.88	0.114
545.34	0.114
545.79	0.114
546.24	0.116
546.69	0.116
547.15	0.117
547.60	0.120
548.05	0.116
548.51	0.115
548.96	0.115
549.41	0.116
549.86	0.117
550.32	0.119
550.77	0.117
551.22	0.119
551.68	0.119
552.13	0.118
552.58	0.120
553.03	0.120
553.49	0.119
553.94	0.122
554.39	0.122
554.84	0.121
555.30	0.120
555.75	0.122
556.20	0.122
556.65	0.123
557.11	0.126
557.56	0.124
558.01	0.123
558.46	0.125
558.92	0.123
559.37	0.126
559.82	0.127
560.27	0.127
560.72	0.127
561.18	0.127
561.63	0.126
562.08	0.127
562.53	0.128
562.99	0.130
563.44	0.130
563.89	0.129
564.34	0.128
564.79	0.130
565.25	0.131
565.70	0.133
566.15	0.134
566.60	0.133
567.05	0.134
567.50	0.136
567.96	0.135
568.41	0.135
568.86	0.138
569.31	0.135
569.76	0.135
570.21	0.136
570.67	0.139
571.12	0.138
571.57	0.141
572.02	0.143
572.47	0.140
572.92	0.142
573.37	0.143
573.83	0.141
574.28	0.143
574.73	0.143
575.18	0.145
575.63	0.145
576.08	0.145
576.53	0.145
576.98	0.148
577.44	0.150
577.89	0.147
578.34	0.150
578.79	0.151
579.24	0.153
579.69	0.151
580.14	0.154
580.59	0.155
581.04	0.153
581.49	0.155
581.95	0.156
582.40	0.158
582.85	0.159
583.30	0.158
583.75	0.161
584.20	0.161
584.65	0.164
585.10	0.165
585.55	0.165
586.00	0.167
586.45	0.166
586.90	0.169
587.35	0.171
587.80	0.170
588.25	0.171
588.71	0.175
589.16	0.176
589.61	0.179
590.06	0.178
590.51	0.180
590.96	0.182
591.41	0.182
591.86	0.184
592.31	0.186
592.76	0.185
593.21	0.188
593.66	0.190
594.11	0.194
594.56	0.194
595.01	0.193
595.46	0.195
595.91	0.198
596.36	0.200
596.81	0.200
597.26	0.202
597.71	0.205
598.16	0.207
598.61	0.205
599.06	0.205
599.51	0.209
599.96	0.213
600.41	0.213
600.86	0.214
601.31	0.213
601.76	0.218
602.21	0.215
602.65	0.220
603.10	0.223
603.55	0.222
604.00	0.224
604.45	0.226
604.90	0.227
605.35	0.225
605.80	0.230
606.25	0.231
606.70	0.233
607.15	0.232
607.60	0.234
608.05	0.237
608.50	0.237
608.95	0.238
609.39	0.239
609.84	0.240
610.29	0.241
610.74	0.242
611.19	0.240
611.64	0.246
612.09	0.247
612.54	0.246
612.99	0.244
613.44	0.246
613.88	0.249
614.33	0.248
614.78	0.249
615.23	0.252
615.68	0.250
616.13	0.252
616.58	0.252
617.03	0.251
617.47	0.252
617.92	0.254
618.37	0.253
618.82	0.255
619.27	0.255
619.72	0.254
620.17	0.258
620.61	0.256
621.06	0.256
621.51	0.259
621.96	0.259
622.41	0.257
622.86	0.262
623.30	0.258
623.75	0.260
624.20	0.262
624.65	0.263
625.10	0.264
625.54	0.264
625.99	0.264
626.44	0.267
626.89	0.265
627.34	0.267
627.78	0.267
628.23	0.269
628.68	0.272
629.13	0.271
629.58	0.272
630.02	0.272
630.47	0.274
630.92	0.276
631.37	0.276
631.81	0.276
632.26	0.278
632.71	0.283
633.16	0.283
633.61	0.283
634.05	0.285
634.50	0.287
634.95	0.289
635.40	0.293
635.84	0.292
636.29	0.294
636.74	0.295
637.18	0.299
637.63	0.299
638.08	0.299
638.53	0.303
638.97	0.304
639.42	0.308
639.87	0.308
640.32	0.312
640.76	0.315
641.21	0.316
641.66	0.318
642.10	0.322
642.55	0.322
643.00	0.327
643.44	0.329
643.89	0.331
644.34	0.331
644.79	0.336
645.23	0.340
645.68	0.339
646.13	0.344
646.57	0.345
647.02	0.349
647.47	0.350
647.91	0.352
648.36	0.357
648.81	0.357
649.25	0.358
649.70	0.362
650.15	0.364
650.59	0.367
651.04	0.370
651.48	0.370
651.93	0.373
652.38	0.372
652.82	0.376
653.27	0.377
653.72	0.381
654.16	0.382
654.61	0.385
655.06	0.385
655.50	0.384
655.95	0.386
656.39	0.392
656.84	0.392
657.29	0.392
657.73	0.395
658.18	0.397
658.62	0.396
659.07	0.398
659.52	0.397
659.96	0.400
660.41	0.400
660.85	0.401
661.30	0.403
661.74	0.403
662.19	0.400
662.64	0.402
663.08	0.404
663.53	0.406
663.97	0.403
664.42	0.403
664.86	0.403
665.31	0.406
665.75	0.403
666.20	0.400
666.65	0.402
667.09	0.402
667.54	0.396
667.98	0.395
668.43	0.395
668.87	0.394
669.32	0.392
669.76	0.389
670.21	0.387
670.65	0.382
671.10	0.380
671.54	0.375
671.99	0.372
672.43	0.367
672.88	0.363
673.32	0.359
673.77	0.351
674.21	0.351
674.66	0.344
675.10	0.340
675.55	0.333
675.99	0.328
676.44	0.325
676.88	0.317
677.33	0.313
677.77	0.305
678.22	0.297
678.66	0.296
679.11	0.287
679.55	0.283
679.99	0.275
680.44	0.268
680.88	0.263
681.33	0.255
681.77	0.250
682.22	0.244
682.66	0.238
683.11	0.232
683.55	0.223
683.99	0.219
684.44	0.215
684.88	0.211
685.33	0.205
685.77	0.200
686.21	0.196
686.66	0.190
687.10	0.185
687.55	0.180
687.99	0.175
688.44	0.172
688.88	0.166
689.32	0.162
689.77	0.159
690.21	0.154
690.65	0.151
691.10	0.148
691.54	0.142
691.99	0.141
692.43	0.139
692.87	0.138
693.32	0.130
693.76	0.128
694.20	0.129
694.65	0.125
695.09	0.123
695.53	0.120
695.98	0.119
696.42	0.117
696.86	0.113
697.31	0.110
697.75	0.111
698.19	0.108
698.64	0.106
699.08	0.106
699.52	0.106
699.97	0.104
700.41	0.104
700.85	0.101
701.30	0.100
701.74	0.097
702.18	0.096
702.63	0.096
703.07	0.094
703.51	0.095
703.96	0.094
704.40	0.092
704.84	0.090
705.28	0.092
705.73	0.089
706.17	0.090
706.61	0.088
707.06	0.088
707.50	0.086
707.94	0.085
708.38	0.089
708.83	0.085
709.27	0.085
709.71	0.085
710.15	0.086
710.60	0.088
711.04	0.085
711.48	0.083
711.92	0.084
712.37	0.084
712.81	0.082
713.25	0.080
713.69	0.085
714.13	0.077
714.58	0.080
715.02	0.081
715.46	0.080
715.90	0.080
716.35	0.082
716.79	0.082
717.23	0.081
717.67	0.083
718.11	0.081
718.56	0.081
719.00	0.082
719.44	0.081
719.88	0.078
720.32	0.081
720.76	0.081
721.21	0.081
721.65	0.080
722.09	0.080
722.53	0.082
722.97	0.083
723.41	0.080
723.86	0.081
724.30	0.081
724.74	0.080
725.18	0.079
725.62	0.084
726.06	0.084
726.50	0.081
726.95	0.081
727.39	0.080
727.83	0.081
728.27	0.079
728.71	0.083
729.15	0.082
729.59	0.081
730.03	0.084
730.48	0.083
730.92	0.081
731.36	0.080
731.80	0.079
732.24	0.081
732.68	0.084
733.12	0.084
733.56	0.084
734.00	0.081
734.44	0.083
734.89	0.082
735.33	0.083
735.77	0.084
736.21	0.083
736.65	0.082
737.09	0.083
737.53	0.085
737.97	0.084
738.41	0.081
738.85	0.085
739.29	0.084
739.73	0.082
740.17	0.084
740.61	0.082
741.05	0.082
741.49	0.084
741.93	0.080
742.37	0.084
742.81	0.083
743.26	0.083
743.70	0.083
744.14	0.084
744.58	0.084
745.02	0.084
745.46	0.086
745.90	0.083
746.34	0.083
746.78	0.081
747.22	0.083
747.66	0.082
748.10	0.081
748.54	0.080
748.98	0.082
749.42	0.083
749.86	0.085
750.29	0.083
750.73	0.081
751.17	0.081
751.61	0.082
752.05	0.085
752.49	0.081
752.93	0.081
753.37	0.082
753.81	0.083
754.25	0.078
754.69	0.080
755.13	0.081
755.57	0.080
756.01	0.080
756.45	0.080
756.89	0.085
757.33	0.084
757.77	0.078
758.21	0.081
758.64	0.081
759.08	0.078
759.52	0.083
759.96	0.080
760.40	0.082
760.84	0.082
761.28	0.083
761.72	0.080
762.16	0.082
762.60	0.079
763.03	0.080
763.47	0.078
763.91	0.083
764.35	0.079
764.79	0.083
765.23	0.081
765.67	0.085
766.11	0.083
766.54	0.080
766.98	0.081
767.42	0.079
767.86	0.077
768.30	0.079
768.74	0.079
769.17	0.077
769.61	0.082
770.05	0.081
770.49	0.078
770.93	0.083
771.37	0.080
771.80	0.077
772.24	0.082
772.68	0.084
773.12	0.083
773.56	0.083
774.00	0.082
774.43	0.080
774.87	0.079
775.31	0.078
775.75	0.081
776.19	0.077
776.62	0.079
777.06	0.081
777.50	0.083
777.94	0.080
778.37	0.079
778.81	0.078
779.25	0.084
779.69	0.081
780.13	0.077
780.56	0.080
781.00	0.081
781.44	0.078
781.88	0.079
782.31	0.081
782.75	0.084
783.19	0.080
783.63	0.081
784.06	0.080
784.50	0.078
784.94	0.078
785.37	0.082
785.81	0.080
786.25	0.081
786.69	0.080
787.12	0.085
787.56	0.080
788.00	0.079
788.43	0.079
788.87	0.077
789.31	0.080
789.75	0.082
790.18	0.080
790.62	0.079
791.06	0.080
791.49	0.079
791.93	0.082
792.37	0.078
792.80	0.078
793.24	0.080
793.68	0.081
794.11	0.076
794.55	0.078
794.99	0.078
795.42	0.075
795.86	0.079
796.30	0.077
796.73	0.080
797.17	0.077
797.61	0.079
798.04	0.081
798.48	0.081
798.91	0.075
799.35	0.076
799.79	0.077
800.22	0.075
800.66	0.077
801.10	0.081
801.53	0.084
801.97	0.080
802.40	0.077
802.84	0.077
803.28	0.080
803.71	0.077
804.15	0.079
804.58	0.082
805.02	0.078
805.46	0.075
805.89	0.080
806.33	0.079
806.76	0.077
807.20	0.074
807.63	0.078
808.07	0.078
808.51	0.073
808.94	0.081
809.38	0.079
809.81	0.075
810.25	0.077
810.68	0.079
811.12	0.074
811.55	0.075
811.99	0.075
812.42	0.074
812.86	0.076
813.29	0.079
813.73	0.074
814.17	0.079
814.60	0.074
815.04	0.077
815.47	0.076
815.91	0.076
816.34	0.075
816.78	0.075
817.21	0.078
817.65	0.076
818.08	0.077
818.52	0.081
818.95	0.081
819.39	0.076
819.82	0.080
820.25	0.082
820.69	0.076
821.12	0.076
821.56	0.079
821.99	0.077
822.43	0.077
822.86	0.072
823.30	0.080
823.73	0.078
824.17	0.074
824.60	0.077
825.04	0.078
825.47	0.076
825.90	0.077
826.34	0.074
826.77	0.081
827.21	0.078
827.64	0.077
828.08	0.079
828.51	0.078
828.94	0.081
829.38	0.081
829.81	0.081
830.25	0.078
830.68	0.082
831.11	0.082
831.55	0.087
831.98	0.075
832.42	0.079
832.85	0.085
833.28	0.085
833.72	0.083
834.15	0.085
834.58	0.083
835.02	0.082
835.45	0.077
835.88	0.085
836.32	0.087
836.75	0.077
837.19	0.086
837.62	0.081
838.05	0.083
838.49	0.082
838.92	0.085
839.35	0.094
839.79	0.083
840.22	0.079
840.65	0.081
841.09	0.089
841.52	0.081
841.95	0.081
842.39	0.082
842.82	0.084
843.25	0.080
843.68	0.090
844.12	0.089
844.55	0.080
844.98	0.086
845.42	0.089
845.85	0.086
846.28	0.084
846.71	0.088
847.15	0.090
847.58	0.087
848.01	0.081
848.45	0.089
848.88	0.088
849.31	0.081
849.74	0.082
850.18	0.094
850.61	0.081
851.04	0.087
851.47	0.086
851.91	0.088
852.34	0.087
852.77	0.084
853.20	0.086
853.64	0.084
854.07	0.080
854.50	0.082
854.93	0.090
855.36	0.081
855.80	0.084
856.23	0.084
856.66	0.086
857.09	0.088
857.52	0.092
857.96	0.092
858.39	0.086
858.82	0.084
859.25	0.089
859.68	0.091
860.12	0.081
860.55	0.088
860.98	0.099
861.41	0.091
861.84	0.089
862.27	0.088
862.71	0.096
863.14	0.092
863.57	0.083
864.00	0.096
864.43	0.099
864.86	0.087
865.30	0.089
865.73	0.087
866.16	0.092
866.59	0.091
867.02	0.083
867.45	0.084
867.88	0.085
868.31	0.086
868.75	0.095
869.18	0.095
869.61	0.087
870.04	0.089
870.47	0.084
870.90	0.093
871.33	0.085
871.76	0.088
872.19	0.092
872.62	0.093
873.06	0.084
873.49	0.092
873.92	0.090
874.35	0.088
874.78	0.092
875.21	0.096
875.64	0.085
876.07	0.087
876.50	0.092
876.93	0.092
877.36	0.092
877.79	0.089
878.22	0.100
878.65	0.092
879.08	0.091
879.51	0.087
879.94	0.096
880.37	0.092
880.80	0.088
881.23	0.092
881.67	0.094
882.10	0.089
882.53	0.091
882.96	0.095
883.39	0.098
883.82	0.086
884.25	0.092
884.68	0.096
885.11	0.097
885.54	0.098
885.97	0.096
886.39	0.094
886.82	0.096
887.25	0.089
887.68	0.098
888.11	0.093
888.54	0.097
888.97	0.094
889.40	0.090
889.83	0.095
890.26	0.096
890.69	0.105
891.12	0.104
891.55	0.099
891.98	0.093
892.41	0.102
892.84	0.099
893.27	0.094
893.70	0.097
894.13	0.100
894.56	0.096
894.98	0.095
895.41	0.100
895.84	0.101
896.27	0.095
896.70	0.102
897.13	0.099
897.56	0.098
897.99	0.098
898.42	0.097
898.85	0.103
899.27	0.095
899.70	0.097
900.13	0.099
900.56	0.101
900.99	0.100
901.42	0.104
901.85	0.101
902.28	0.101
902.70	0.096
903.13	0.100
903.56	0.099
903.99	0.099
904.42	0.099
904.85	0.102
905.27	0.100
905.70	0.103
906.13	0.105
906.56	0.101
906.99	0.097
907.42	0.099
907.84	0.099
908.27	0.099
908.70	0.103
909.13	0.099
909.56	0.108
909.98	0.095
910.41	0.097
910.84	0.101
911.27	0.105
911.70	0.106
912.12	0.097
912.55	0.101
912.98	0.101
913.41	0.098
913.84	0.104
914.26	0.105
914.69	0.096
915.12	0.097
915.55	0.099
915.97	0.101
916.40	0.102
916.83	0.098
917.26	0.102
917.68	0.102
918.11	0.098
918.54	0.101
918.97	0.102
919.39	0.099
919.82	0.104
920.25	0.100
920.67	0.099
921.10	0.104
921.53	0.104
921.96	0.100
922.38	0.105
922.81	0.105
923.24	0.105
923.66	0.104
924.09	0.108
924.52	0.109
924.94	0.107
925.37	0.107
925.80	0.106
926.22	0.110
926.65	0.108
927.08	0.108
927.50	0.114
927.93	0.120
928.36	0.112
928.78	0.113
929.21	0.114
929.64	0.114
930.06	0.112
930.49	0.113
930.92	0.115
931.34	0.118
931.77	0.119
932.20	0.116
932.62	0.120
933.05	0.123
933.47	0.121
933.90	0.122
934.33	0.130
934.75	0.127
935.18	0.122
935.61	0.127
936.03	0.131
936.46	0.129
936.88	0.131
937.31	0.140
937.73	0.136
938.16	0.137
938.59	0.139
939.01	0.140
939.44	0.145
939.86	0.143
940.29	0.152
940.71	0.152
941.14	0.155
941.57	0.156
941.99	0.162
942.42	0.164
942.84	0.160
943.27	0.166
943.69	0.172
944.12	0.166
944.54	0.171
944.97	0.171
945.39	0.177
945.82	0.172
946.24	0.169
946.67	0.175
947.09	0.184
947.52	0.177
947.94	0.181
948.37	0.197
948.79	0.187
949.22	0.189
949.64	0.190
950.07	0.187
950.49	0.197
950.92	0.199
951.34	0.196
951.77	0.213
952.19	0.209
952.62	0.207
953.04	0.211
953.47	0.211
953.89	0.224
954.32	0.224
954.74	0.231
955.17	0.224
955.59	0.234
956.01	0.242
956.44	0.234
956.86	0.233
957.29	0.241
957.71	0.248
958.14	0.245
958.56	0.247
958.98	0.257
959.41	0.255
959.83	0.252
960.26	0.253
960.68	0.261
961.10	0.257
961.53	0.255
961.95	0.261
962.38	0.262
962.80	0.256
963.22	0.263
963.65	0.271
964.07	0.270
964.50	0.260
964.92	0.259
965.34	0.274
965.77	0.265
966.19	0.264
966.61	0.278
967.04	0.279
967.46	0.268
967.88	0.271
968.31	0.270
968.73	0.272
969.15	0.269
969.58	0.271
970.00	0.277
970.42	0.278
970.85	0.264
971.27	0.281
971.69	0.273
972.12	0.277
972.54	0.276
972.96	0.284
973.39	0.275
973.81	0.268
974.23	0.276
974.65	0.277
975.08	0.274
975.50	0.273
975.92	0.277
976.35	0.276
976.77	0.276
977.19	0.273
977.61	0.276
978.04	0.276
978.46	0.272
978.88	0.283
979.30	0.281
979.73	0.270
980.15	0.270
980.57	0.282
980.99	0.279
981.42	0.272
981.84	0.277
982.26	0.282
982.68	0.273
983.11	0.269
983.53	0.281
983.95	0.273
984.37	0.276
984.79	0.269
985.22	0.276
985.64	0.273
986.06	0.264
986.48	0.270
986.90	0.270
987.33	0.264
987.75	0.266
988.17	0.273
988.59	0.269
989.01	0.266
989.43	0.266
989.86	0.269
990.28	0.270
990.70	0.258
991.12	0.264
991.54	0.264
991.96	0.258
992.39	0.264
992.81	0.257
993.23	0.262
993.65	0.259
994.07	0.253
994.49	0.256
994.91	0.251
995.34	0.257
995.76	0.252
996.18	0.265
996.60	0.253
997.02	0.254
997.44	0.253
997.86	0.265
998.28	0.251
998.70	0.258
999.12	0.259
999.55	0.250
999.97	0.252
1000.39	0.254
1000.81	0.247
1001.23	0.242
1001.65	0.241
1002.07	0.249
1002.49	0.245
1002.91	0.242
1003.33	0.241
1003.75	0.248
1004.17	0.241
1004.59	0.237
1005.01	0.242
1005.43	0.245
1005.85	0.234
1006.28	0.237
1006.70	0.240
1007.12	0.235
1007.54	0.239
1007.96	0.233
1008.38	0.227
1008.80	0.227
1009.22	0.242
1009.64	0.233
1010.06	0.226
1010.48	0.219
1010.90	0.223
1011.32	0.229
1011.74	0.215
1012.16	0.213
1012.58	0.224
1013.00	0.217
1013.42	0.208
1013.84	0.212
1014.26	0.221
1014.67	0.228
1015.09	0.210
1015.51	0.217
1015.93	0.222
1016.35	0.227
1016.77	0.213
1017.19	0.214
1017.61	0.208
1018.03	0.212
1018.45	0.210
1018.87	0.210
1019.29	0.218
1019.71	0.203
1020.13	0.211
1020.55	0.216
1020.97	0.196
1021.38	0.198
1021.80	0.211
1022.22	0.214
1022.64	0.198
1023.06	0.189
1023.48	0.192
1023.90	0.192
1024.32	0.192
1024.74	0.205
1025.15	0.195
1025.57	0.193
1025.99	0.181
1026.41	0.191
1026.83	0.182
1027.25	0.198
1027.67	0.190
1028.08	0.186
1028.50	0.192
1028.92	0.167
1029.34	0.175
1029.76	0.188
1030.18	0.162
1030.60	0.184
1031.01	0.194
1031.43	0.167
1031.85	0.177
1032.27	0.177
1032.69	0.170
1033.10	0.169
1033.52	0.171
1033.94	0.164
1034.36	0.175
1034.78	0.158
1035.19	0.156
1035.61	0.183
1036.03	0.170
1036.45	0.160
1036.87	0.158
1037.28	0.178
1037.70	0.158
1038.12	0.150
1038.54	0.165
1038.95	0.177
1039.37	0.155
1039.79	0.169
1040.21	0.158
1040.62	0.171
1041.04	0.151
1041.46	0.157
1041.88	0.155
1042.29	0.155
1042.71	0.151
1043.13	0.163
1043.55	0.157
1043.96	0.144
1044.38	0.148
1044.80	0.150
1045.21	0.160
1045.63	0.154
1046.05	0.148
1046.47	0.153
1046.88	0.142
1047.30	0.140
1047.72	0.166
1048.13	0.168
1048.55	0.124
1048.97	0.152
1049.38	0.145
1049.80	0.139
1050.22	0.138
1050.63	0.158
1051.05	0.131
1051.47	0.150
1051.88	0.151
1052.30	0.154
1052.72	0.115
1053.13	0.137
1053.55	0.159
1053.97	0.169
1054.38	0.165
1054.80	0.130
1055.21	0.152
1055.63	0.167
1056.05	0.162
1056.46	0.103
1056.88	0.159
1057.29	0.140
1057.71	0.116
1058.13	0.178
1058.54	0.138
1058.96	0.120
1059.37	0.123
1059.79	0.202
1060.21	0.153
1060.62	0.200
1061.04	0.200
1061.45	0.222
1061.87	0.121
1062.28	0.125
1062.70	0.174
1063.12	0.203
1063.53	0.171
1063.95	0.169
1064.36	0.202
1064.78	0.150
1065.19	0.099
1065.61	0.161
1066.02	0.197
1066.44	0.156
1066.85	0.120
1067.27	0.254
1067.68	0.152
1068.10	0.059
1068.51	0.116
1068.93	0.108
1069.35	0.222
1069.76	0.184
1070.17	0.239
1070.59	0.204
1071.00	0.236
1071.42	0.164
1071.83	0.286
1072.25	0.193
1072.66	0.157
1073.08	0.234
1073.49	0.291
1073.91	0.110
1074.32	0.148
1074.74	0.153
1075.15	0.207
1075.57	0.302
1075.98	0.127
1076.40	0.386
1076.81	0.268
1077.22	0.137
1077.64	0.361
1078.05	0.534
1078.47	0.293
1078.88	0.259
1079.30	0.409
1079.71	0.318
1080.12	0.500
1080.54	0.167
1080.95	0.377
1081.37	0.252
1081.78	0.314
1082.19	0.224
1082.61	0.265
1083.02	0.166
1083.44	0.029
1083.85	0.827
1084.26	0.515
1084.68	0.149
1085.09	0.359
1085.50	0.776
1085.92	0.493
1086.33	0.229
1086.74	0.854
1087.16	0.608
1087.57	0.269
1087.98	0.391
1088.40	0.414
1088.81	0.281
1089.22	0.174
1089.64	0.469
1090.05	0.815
1090.46	0.375
1090.88	0.527
1091.29	1.002
1091.70	0.592
1092.12	0.170
1092.53	0.252
1092.94	-0.000
1093.36	0.489
1093.77	-0.000
1094.18	0.537
1094.59	0.188
1095.01	1.362
1095.42	0.021
1095.83	0.875
1096.25	0.704
1096.66	0.017
1097.07	0.527
1097.48	0.339
1097.90	1.000
1098.31	0.463
1098.72	-0.000
1099.13	0.672
>>>>>End Processed Spectral Data<<<<<
