SpectraSuite Data File
++++++++++++++++++++++++++++++++++++
Date: Tue Jul 11 13:52:59 CEST 2017
User: IPCE
Dark Spectrum Present: Yes
Reference Spectrum Present: Yes
Number of Sampled Component Spectra: 1
Spectrometers: HR+C0708
Integration Time (usec): 1000 (HR+C0708)
Spectra Averaged: 10 (HR+C0708)
Boxcar Smoothing: 0 (HR+C0708)
Correct for Electrical Dark: No (HR+C0708)
Strobe/Lamp Enabled: No (HR+C0708)
Correct for Detector Non-linearity: No (HR+C0708)
Correct for Stray Light: No (HR+C0708)
Number of Pixels in Processed Spectrum: 2048
>>>>>Begin Processed Spectral Data<<<<<
188.76	0.400
189.23	0.133
189.70	0.942
190.17	0.253
190.64	0.250
191.12	0.066
191.59	0.164
192.06	0.374
192.53	0.087
193.01	0.229
193.48	-0.000
193.95	-0.094
194.42	-0.042
194.90	0.270
195.37	1.512
195.84	0.411
196.31	0.454
196.78	0.778
197.26	0.365
197.73	0.025
198.20	-0.239
198.67	-0.000
199.14	-0.000
199.62	-0.233
200.09	0.509
200.56	0.213
201.03	0.390
201.50	0.551
201.97	0.467
202.45	0.592
202.92	0.298
203.39	0.401
203.86	0.562
204.33	0.282
204.80	0.365
205.28	0.552
205.75	0.415
206.22	0.358
206.69	0.384
207.16	0.207
207.63	0.477
208.11	0.278
208.58	0.372
209.05	0.756
209.52	0.382
209.99	0.422
210.46	0.435
210.93	0.477
211.41	0.395
211.88	0.453
212.35	0.362
212.82	0.407
213.29	0.451
213.76	0.273
214.23	0.419
214.70	0.347
215.18	0.450
215.65	0.577
216.12	0.424
216.59	0.288
217.06	0.495
217.53	0.466
218.00	0.334
218.47	0.589
218.94	0.466
219.41	0.652
219.89	0.383
220.36	0.439
220.83	0.726
221.30	0.445
221.77	0.505
222.24	0.628
222.71	0.383
223.18	0.468
223.65	0.721
224.12	0.588
224.59	0.706
225.06	0.571
225.54	0.570
226.01	0.819
226.48	0.646
226.95	0.858
227.42	1.088
227.89	0.996
228.36	0.941
228.83	1.116
229.30	1.179
229.77	1.374
230.24	1.348
230.71	1.108
231.18	1.268
231.65	1.198
232.12	1.261
232.59	1.544
233.06	1.413
233.53	1.619
234.00	1.398
234.47	1.602
234.94	1.662
235.41	1.859
235.88	1.803
236.35	1.922
236.82	1.767
237.29	1.935
237.76	1.929
238.23	2.025
238.70	1.969
239.17	2.134
239.64	2.362
240.11	2.074
240.58	1.939
241.05	2.056
241.52	2.349
241.99	2.086
242.46	2.062
242.93	2.422
243.40	2.143
243.87	2.299
244.34	2.359
244.81	2.172
245.28	2.333
245.75	2.388
246.22	2.120
246.69	2.408
247.16	2.292
247.63	2.363
248.10	2.811
248.57	2.289
249.04	2.339
249.51	2.251
249.98	2.323
250.45	2.257
250.92	2.278
251.39	2.297
251.85	2.286
252.32	2.176
252.79	2.092
253.26	2.258
253.73	2.101
254.20	2.000
254.67	1.954
255.14	1.811
255.61	1.814
256.08	1.791
256.55	1.711
257.02	1.677
257.49	1.657
257.95	1.617
258.42	1.589
258.89	1.568
259.36	1.532
259.83	1.520
260.30	1.491
260.77	1.475
261.24	1.452
261.71	1.433
262.17	1.417
262.64	1.397
263.11	1.384
263.58	1.363
264.05	1.345
264.52	1.329
264.99	1.329
265.46	1.307
265.92	1.297
266.39	1.284
266.86	1.274
267.33	1.270
267.80	1.248
268.27	1.240
268.74	1.241
269.20	1.232
269.67	1.210
270.14	1.217
270.61	1.201
271.08	1.195
271.55	1.188
272.01	1.174
272.48	1.173
272.95	1.166
273.42	1.158
273.89	1.147
274.36	1.138
274.82	1.131
275.29	1.138
275.76	1.128
276.23	1.127
276.70	1.115
277.16	1.109
277.63	1.116
278.10	1.102
278.57	1.101
279.04	1.109
279.50	1.100
279.97	1.096
280.44	1.097
280.91	1.092
281.38	1.088
281.84	1.094
282.31	1.080
282.78	1.089
283.25	1.083
283.72	1.075
284.18	1.079
284.65	1.087
285.12	1.075
285.59	1.077
286.05	1.074
286.52	1.075
286.99	1.077
287.46	1.078
287.92	1.077
288.39	1.077
288.86	1.071
289.33	1.074
289.79	1.071
290.26	1.067
290.73	1.072
291.20	1.070
291.66	1.066
292.13	1.066
292.60	1.052
293.07	1.050
293.53	1.048
294.00	1.036
294.47	1.030
294.93	1.025
295.40	1.021
295.87	1.016
296.34	1.003
296.80	0.999
297.27	0.983
297.74	0.972
298.20	0.969
298.67	0.954
299.14	0.953
299.60	0.937
300.07	0.921
300.54	0.917
301.01	0.911
301.47	0.892
301.94	0.878
302.41	0.876
302.87	0.868
303.34	0.860
303.81	0.850
304.27	0.839
304.74	0.836
305.21	0.820
305.67	0.822
306.14	0.813
306.61	0.801
307.07	0.795
307.54	0.788
308.01	0.783
308.47	0.777
308.94	0.773
309.40	0.766
309.87	0.758
310.34	0.755
310.80	0.750
311.27	0.748
311.74	0.737
312.20	0.733
312.67	0.738
313.13	0.730
313.60	0.720
314.07	0.722
314.53	0.716
315.00	0.710
315.47	0.708
315.93	0.706
316.40	0.708
316.86	0.698
317.33	0.697
317.80	0.694
318.26	0.686
318.73	0.684
319.19	0.684
319.66	0.675
320.13	0.673
320.59	0.672
321.06	0.668
321.52	0.667
321.99	0.662
322.45	0.657
322.92	0.653
323.39	0.654
323.85	0.646
324.32	0.648
324.78	0.639
325.25	0.635
325.71	0.632
326.18	0.630
326.64	0.629
327.11	0.620
327.58	0.624
328.04	0.619
328.51	0.615
328.97	0.616
329.44	0.613
329.90	0.607
330.37	0.605
330.83	0.603
331.30	0.602
331.76	0.598
332.23	0.594
332.69	0.596
333.16	0.594
333.62	0.596
334.09	0.592
334.56	0.593
335.02	0.579
335.49	0.581
335.95	0.584
336.42	0.580
336.88	0.577
337.35	0.576
337.81	0.574
338.28	0.578
338.74	0.575
339.20	0.575
339.67	0.582
340.13	0.573
340.60	0.569
341.06	0.569
341.53	0.567
341.99	0.565
342.46	0.563
342.92	0.561
343.39	0.559
343.85	0.552
344.32	0.555
344.78	0.553
345.25	0.548
345.71	0.549
346.17	0.546
346.64	0.544
347.10	0.537
347.57	0.533
348.03	0.521
348.50	0.521
348.96	0.512
349.43	0.505
349.89	0.512
350.35	0.499
350.82	0.494
351.28	0.483
351.75	0.478
352.21	0.468
352.67	0.460
353.14	0.453
353.60	0.442
354.07	0.431
354.53	0.419
355.00	0.406
355.46	0.397
355.92	0.378
356.39	0.361
356.85	0.347
357.31	0.336
357.78	0.315
358.24	0.301
358.71	0.287
359.17	0.268
359.63	0.255
360.10	0.243
360.56	0.224
361.03	0.212
361.49	0.200
361.95	0.187
362.42	0.180
362.88	0.173
363.34	0.167
363.81	0.159
364.27	0.153
364.73	0.150
365.20	0.148
365.66	0.142
366.12	0.142
366.59	0.136
367.05	0.135
367.51	0.133
367.98	0.130
368.44	0.131
368.90	0.127
369.37	0.126
369.83	0.124
370.29	0.126
370.76	0.122
371.22	0.122
371.68	0.124
372.15	0.120
372.61	0.118
373.07	0.119
373.54	0.117
374.00	0.120
374.46	0.117
374.92	0.118
375.39	0.117
375.85	0.116
376.31	0.114
376.78	0.114
377.24	0.114
377.70	0.118
378.16	0.113
378.63	0.113
379.09	0.111
379.55	0.111
380.01	0.112
380.48	0.112
380.94	0.110
381.40	0.110
381.87	0.110
382.33	0.108
382.79	0.111
383.25	0.110
383.72	0.108
384.18	0.107
384.64	0.105
385.10	0.107
385.56	0.107
386.03	0.107
386.49	0.106
386.95	0.106
387.41	0.106
387.88	0.101
388.34	0.105
388.80	0.105
389.26	0.101
389.72	0.104
390.19	0.108
390.65	0.102
391.11	0.104
391.57	0.103
392.04	0.103
392.50	0.103
392.96	0.103
393.42	0.103
393.88	0.104
394.34	0.104
394.81	0.100
395.27	0.100
395.73	0.104
396.19	0.099
396.65	0.101
397.12	0.099
397.58	0.098
398.04	0.099
398.50	0.101
398.96	0.099
399.42	0.100
399.89	0.100
400.35	0.098
400.81	0.097
401.27	0.094
401.73	0.097
402.19	0.098
402.65	0.094
403.12	0.094
403.58	0.093
404.04	0.091
404.50	0.094
404.96	0.092
405.42	0.089
405.88	0.090
406.34	0.091
406.81	0.089
407.27	0.091
407.73	0.089
408.19	0.089
408.65	0.091
409.11	0.091
409.57	0.088
410.03	0.086
410.49	0.084
410.96	0.085
411.42	0.086
411.88	0.084
412.34	0.088
412.80	0.086
413.26	0.087
413.72	0.088
414.18	0.082
414.64	0.082
415.10	0.085
415.56	0.083
416.02	0.083
416.48	0.082
416.95	0.080
417.41	0.082
417.87	0.081
418.33	0.081
418.79	0.083
419.25	0.082
419.71	0.083
420.17	0.084
420.63	0.081
421.09	0.081
421.55	0.079
422.01	0.080
422.47	0.084
422.93	0.083
423.39	0.082
423.85	0.081
424.31	0.080
424.77	0.082
425.23	0.081
425.69	0.079
426.15	0.078
426.61	0.078
427.07	0.078
427.53	0.080
427.99	0.080
428.45	0.077
428.91	0.079
429.37	0.075
429.83	0.078
430.29	0.079
430.75	0.080
431.21	0.080
431.67	0.079
432.13	0.076
432.59	0.075
433.05	0.077
433.51	0.076
433.97	0.078
434.43	0.081
434.89	0.078
435.35	0.075
435.81	0.074
436.27	0.073
436.73	0.076
437.19	0.076
437.65	0.075
438.11	0.077
438.57	0.076
439.03	0.076
439.48	0.074
439.94	0.076
440.40	0.076
440.86	0.073
441.32	0.074
441.78	0.078
442.24	0.078
442.70	0.078
443.16	0.075
443.62	0.078
444.08	0.075
444.54	0.077
444.99	0.076
445.45	0.079
445.91	0.076
446.37	0.073
446.83	0.072
447.29	0.073
447.75	0.076
448.21	0.070
448.67	0.071
449.12	0.072
449.58	0.073
450.04	0.074
450.50	0.072
450.96	0.075
451.42	0.073
451.88	0.071
452.34	0.074
452.79	0.073
453.25	0.073
453.71	0.072
454.17	0.073
454.63	0.072
455.09	0.075
455.55	0.076
456.00	0.072
456.46	0.071
456.92	0.071
457.38	0.075
457.84	0.073
458.30	0.071
458.75	0.072
459.21	0.074
459.67	0.074
460.13	0.071
460.59	0.073
461.04	0.072
461.50	0.074
461.96	0.074
462.42	0.075
462.88	0.074
463.33	0.073
463.79	0.074
464.25	0.072
464.71	0.073
465.17	0.073
465.62	0.074
466.08	0.072
466.54	0.074
467.00	0.073
467.46	0.070
467.91	0.072
468.37	0.073
468.83	0.073
469.29	0.074
469.74	0.074
470.20	0.072
470.66	0.077
471.12	0.074
471.57	0.072
472.03	0.073
472.49	0.071
472.95	0.074
473.40	0.072
473.86	0.073
474.32	0.075
474.78	0.074
475.23	0.073
475.69	0.073
476.15	0.072
476.60	0.074
477.06	0.075
477.52	0.073
477.98	0.075
478.43	0.073
478.89	0.073
479.35	0.073
479.80	0.073
480.26	0.072
480.72	0.073
481.18	0.075
481.63	0.073
482.09	0.073
482.55	0.074
483.00	0.073
483.46	0.072
483.92	0.072
484.37	0.074
484.83	0.074
485.29	0.073
485.74	0.073
486.20	0.072
486.66	0.073
487.11	0.072
487.57	0.070
488.03	0.073
488.48	0.072
488.94	0.075
489.40	0.074
489.85	0.074
490.31	0.073
490.77	0.072
491.22	0.072
491.68	0.072
492.13	0.073
492.59	0.073
493.05	0.072
493.50	0.074
493.96	0.072
494.42	0.073
494.87	0.074
495.33	0.072
495.78	0.073
496.24	0.072
496.70	0.073
497.15	0.074
497.61	0.071
498.06	0.074
498.52	0.072
498.98	0.073
499.43	0.071
499.89	0.073
500.34	0.073
500.80	0.072
501.25	0.073
501.71	0.072
502.17	0.074
502.62	0.071
503.08	0.072
503.53	0.074
503.99	0.071
504.44	0.071
504.90	0.070
505.36	0.071
505.81	0.072
506.27	0.074
506.72	0.072
507.18	0.074
507.63	0.069
508.09	0.071
508.54	0.069
509.00	0.071
509.45	0.070
509.91	0.070
510.36	0.070
510.82	0.071
511.27	0.073
511.73	0.073
512.19	0.073
512.64	0.069
513.10	0.068
513.55	0.070
514.01	0.071
514.46	0.072
514.92	0.071
515.37	0.070
515.83	0.071
516.28	0.069
516.73	0.069
517.19	0.069
517.64	0.067
518.10	0.071
518.55	0.069
519.01	0.070
519.46	0.070
519.92	0.070
520.37	0.070
520.83	0.072
521.28	0.068
521.74	0.071
522.19	0.069
522.65	0.068
523.10	0.071
523.55	0.069
524.01	0.068
524.46	0.070
524.92	0.068
525.37	0.069
525.83	0.072
526.28	0.070
526.73	0.069
527.19	0.070
527.64	0.071
528.10	0.071
528.55	0.071
529.01	0.071
529.46	0.070
529.91	0.070
530.37	0.069
530.82	0.070
531.28	0.071
531.73	0.069
532.18	0.070
532.64	0.072
533.09	0.071
533.54	0.072
534.00	0.071
534.45	0.072
534.91	0.071
535.36	0.074
535.81	0.074
536.27	0.074
536.72	0.074
537.17	0.075
537.63	0.075
538.08	0.073
538.54	0.075
538.99	0.076
539.44	0.073
539.90	0.075
540.35	0.075
540.80	0.074
541.26	0.076
541.71	0.078
542.16	0.078
542.62	0.080
543.07	0.079
543.52	0.078
543.98	0.080
544.43	0.077
544.88	0.080
545.34	0.080
545.79	0.080
546.24	0.081
546.69	0.081
547.15	0.083
547.60	0.083
548.05	0.082
548.51	0.083
548.96	0.082
549.41	0.083
549.86	0.082
550.32	0.084
550.77	0.083
551.22	0.084
551.68	0.085
552.13	0.087
552.58	0.085
553.03	0.087
553.49	0.087
553.94	0.090
554.39	0.091
554.84	0.087
555.30	0.091
555.75	0.092
556.20	0.091
556.65	0.092
557.11	0.094
557.56	0.092
558.01	0.091
558.46	0.094
558.92	0.095
559.37	0.097
559.82	0.098
560.27	0.097
560.72	0.097
561.18	0.099
561.63	0.097
562.08	0.100
562.53	0.100
562.99	0.102
563.44	0.105
563.89	0.102
564.34	0.101
564.79	0.104
565.25	0.105
565.70	0.106
566.15	0.108
566.60	0.107
567.05	0.109
567.50	0.108
567.96	0.110
568.41	0.110
568.86	0.112
569.31	0.112
569.76	0.115
570.21	0.114
570.67	0.115
571.12	0.115
571.57	0.119
572.02	0.118
572.47	0.116
572.92	0.120
573.37	0.121
573.83	0.120
574.28	0.121
574.73	0.123
575.18	0.124
575.63	0.126
576.08	0.125
576.53	0.127
576.98	0.128
577.44	0.131
577.89	0.129
578.34	0.132
578.79	0.132
579.24	0.137
579.69	0.135
580.14	0.138
580.59	0.139
581.04	0.139
581.49	0.141
581.95	0.143
582.40	0.144
582.85	0.143
583.30	0.147
583.75	0.149
584.20	0.149
584.65	0.152
585.10	0.153
585.55	0.154
586.00	0.158
586.45	0.158
586.90	0.161
587.35	0.162
587.80	0.163
588.25	0.167
588.71	0.167
589.16	0.170
589.61	0.172
590.06	0.173
590.51	0.178
590.96	0.179
591.41	0.181
591.86	0.180
592.31	0.185
592.76	0.186
593.21	0.187
593.66	0.192
594.11	0.194
594.56	0.195
595.01	0.198
595.46	0.200
595.91	0.204
596.36	0.203
596.81	0.206
597.26	0.211
597.71	0.212
598.16	0.214
598.61	0.214
599.06	0.217
599.51	0.219
599.96	0.224
600.41	0.227
600.86	0.228
601.31	0.226
601.76	0.234
602.21	0.234
602.65	0.238
603.10	0.240
603.55	0.240
604.00	0.243
604.45	0.243
604.90	0.247
605.35	0.250
605.80	0.252
606.25	0.254
606.70	0.255
607.15	0.255
607.60	0.257
608.05	0.262
608.50	0.262
608.95	0.265
609.39	0.267
609.84	0.268
610.29	0.269
610.74	0.271
611.19	0.270
611.64	0.272
612.09	0.275
612.54	0.275
612.99	0.276
613.44	0.277
613.88	0.277
614.33	0.279
614.78	0.280
615.23	0.284
615.68	0.283
616.13	0.282
616.58	0.284
617.03	0.282
617.47	0.282
617.92	0.284
618.37	0.285
618.82	0.289
619.27	0.289
619.72	0.288
620.17	0.287
620.61	0.289
621.06	0.288
621.51	0.292
621.96	0.292
622.41	0.293
622.86	0.293
623.30	0.293
623.75	0.293
624.20	0.296
624.65	0.297
625.10	0.298
625.54	0.300
625.99	0.299
626.44	0.300
626.89	0.301
627.34	0.302
627.78	0.304
628.23	0.305
628.68	0.305
629.13	0.308
629.58	0.311
630.02	0.311
630.47	0.313
630.92	0.314
631.37	0.317
631.81	0.318
632.26	0.321
632.71	0.324
633.16	0.322
633.61	0.325
634.05	0.328
634.50	0.331
634.95	0.332
635.40	0.335
635.84	0.339
636.29	0.339
636.74	0.343
637.18	0.347
637.63	0.349
638.08	0.351
638.53	0.354
638.97	0.358
639.42	0.360
639.87	0.364
640.32	0.367
640.76	0.369
641.21	0.373
641.66	0.377
642.10	0.383
642.55	0.383
643.00	0.388
643.44	0.389
643.89	0.394
644.34	0.398
644.79	0.404
645.23	0.405
645.68	0.411
646.13	0.411
646.57	0.418
647.02	0.422
647.47	0.424
647.91	0.430
648.36	0.432
648.81	0.438
649.25	0.439
649.70	0.444
650.15	0.447
650.59	0.453
651.04	0.455
651.48	0.459
651.93	0.462
652.38	0.465
652.82	0.466
653.27	0.470
653.72	0.477
654.16	0.475
654.61	0.481
655.06	0.484
655.50	0.486
655.95	0.489
656.39	0.493
656.84	0.497
657.29	0.496
657.73	0.498
658.18	0.504
658.62	0.508
659.07	0.509
659.52	0.507
659.96	0.514
660.41	0.513
660.85	0.515
661.30	0.520
661.74	0.518
662.19	0.520
662.64	0.523
663.08	0.524
663.53	0.522
663.97	0.526
664.42	0.525
664.86	0.527
665.31	0.526
665.75	0.524
666.20	0.524
666.65	0.522
667.09	0.522
667.54	0.519
667.98	0.519
668.43	0.515
668.87	0.511
669.32	0.509
669.76	0.509
670.21	0.501
670.65	0.502
671.10	0.497
671.54	0.488
671.99	0.484
672.43	0.477
672.88	0.470
673.32	0.469
673.77	0.458
674.21	0.451
674.66	0.444
675.10	0.438
675.55	0.428
675.99	0.422
676.44	0.412
676.88	0.404
677.33	0.395
677.77	0.384
678.22	0.374
678.66	0.368
679.11	0.357
679.55	0.347
679.99	0.336
680.44	0.329
680.88	0.318
681.33	0.311
681.77	0.300
682.22	0.292
682.66	0.282
683.11	0.271
683.55	0.263
683.99	0.255
684.44	0.245
684.88	0.241
685.33	0.230
685.77	0.221
686.21	0.216
686.66	0.203
687.10	0.197
687.55	0.191
687.99	0.184
688.44	0.178
688.88	0.172
689.32	0.166
689.77	0.159
690.21	0.153
690.65	0.150
691.10	0.143
691.54	0.136
691.99	0.131
692.43	0.125
692.87	0.123
693.32	0.118
693.76	0.114
694.20	0.112
694.65	0.109
695.09	0.102
695.53	0.100
695.98	0.098
696.42	0.095
696.86	0.089
697.31	0.086
697.75	0.086
698.19	0.082
698.64	0.082
699.08	0.079
699.52	0.077
699.97	0.075
700.41	0.072
700.85	0.073
701.30	0.068
701.74	0.066
702.18	0.068
702.63	0.064
703.07	0.061
703.51	0.064
703.96	0.060
704.40	0.058
704.84	0.056
705.28	0.056
705.73	0.056
706.17	0.055
706.61	0.052
707.06	0.052
707.50	0.051
707.94	0.049
708.38	0.051
708.83	0.049
709.27	0.049
709.71	0.047
710.15	0.050
710.60	0.049
711.04	0.045
711.48	0.046
711.92	0.047
712.37	0.045
712.81	0.046
713.25	0.043
713.69	0.046
714.13	0.041
714.58	0.040
715.02	0.043
715.46	0.041
715.90	0.041
716.35	0.045
716.79	0.041
717.23	0.043
717.67	0.043
718.11	0.043
718.56	0.042
719.00	0.042
719.44	0.042
719.88	0.039
720.32	0.041
720.76	0.039
721.21	0.040
721.65	0.040
722.09	0.040
722.53	0.041
722.97	0.041
723.41	0.039
723.86	0.041
724.30	0.042
724.74	0.041
725.18	0.043
725.62	0.041
726.06	0.042
726.50	0.040
726.95	0.040
727.39	0.040
727.83	0.040
728.27	0.040
728.71	0.043
729.15	0.043
729.59	0.040
730.03	0.042
730.48	0.042
730.92	0.042
731.36	0.040
731.80	0.042
732.24	0.041
732.68	0.042
733.12	0.042
733.56	0.044
734.00	0.041
734.44	0.044
734.89	0.042
735.33	0.043
735.77	0.042
736.21	0.043
736.65	0.043
737.09	0.042
737.53	0.044
737.97	0.045
738.41	0.044
738.85	0.046
739.29	0.044
739.73	0.041
740.17	0.045
740.61	0.042
741.05	0.043
741.49	0.042
741.93	0.043
742.37	0.043
742.81	0.045
743.26	0.043
743.70	0.043
744.14	0.048
744.58	0.042
745.02	0.043
745.46	0.045
745.90	0.044
746.34	0.046
746.78	0.042
747.22	0.041
747.66	0.044
748.10	0.044
748.54	0.042
748.98	0.042
749.42	0.044
749.86	0.043
750.29	0.044
750.73	0.042
751.17	0.044
751.61	0.043
752.05	0.045
752.49	0.041
752.93	0.042
753.37	0.044
753.81	0.045
754.25	0.042
754.69	0.039
755.13	0.042
755.57	0.039
756.01	0.039
756.45	0.042
756.89	0.047
757.33	0.045
757.77	0.042
758.21	0.041
758.64	0.041
759.08	0.041
759.52	0.043
759.96	0.040
760.40	0.043
760.84	0.044
761.28	0.041
761.72	0.041
762.16	0.041
762.60	0.042
763.03	0.043
763.47	0.040
763.91	0.045
764.35	0.043
764.79	0.043
765.23	0.040
765.67	0.042
766.11	0.042
766.54	0.040
766.98	0.042
767.42	0.043
767.86	0.039
768.30	0.039
768.74	0.040
769.17	0.041
769.61	0.044
770.05	0.042
770.49	0.040
770.93	0.041
771.37	0.041
771.80	0.039
772.24	0.041
772.68	0.043
773.12	0.038
773.56	0.043
774.00	0.043
774.43	0.043
774.87	0.041
775.31	0.042
775.75	0.042
776.19	0.043
776.62	0.041
777.06	0.040
777.50	0.042
777.94	0.042
778.37	0.041
778.81	0.042
779.25	0.042
779.69	0.043
780.13	0.038
780.56	0.043
781.00	0.042
781.44	0.039
781.88	0.045
782.31	0.043
782.75	0.044
783.19	0.041
783.63	0.040
784.06	0.039
784.50	0.038
784.94	0.040
785.37	0.040
785.81	0.040
786.25	0.037
786.69	0.043
787.12	0.041
787.56	0.042
788.00	0.038
788.43	0.039
788.87	0.039
789.31	0.042
789.75	0.043
790.18	0.044
790.62	0.040
791.06	0.039
791.49	0.039
791.93	0.042
792.37	0.037
792.80	0.041
793.24	0.039
793.68	0.039
794.11	0.041
794.55	0.041
794.99	0.042
795.42	0.039
795.86	0.040
796.30	0.041
796.73	0.039
797.17	0.041
797.61	0.043
798.04	0.043
798.48	0.038
798.91	0.042
799.35	0.039
799.79	0.041
800.22	0.037
800.66	0.039
801.10	0.040
801.53	0.044
801.97	0.043
802.40	0.039
802.84	0.043
803.28	0.044
803.71	0.040
804.15	0.042
804.58	0.043
805.02	0.042
805.46	0.042
805.89	0.043
806.33	0.040
806.76	0.040
807.20	0.038
807.63	0.039
808.07	0.041
808.51	0.038
808.94	0.036
809.38	0.042
809.81	0.040
810.25	0.039
810.68	0.040
811.12	0.039
811.55	0.035
811.99	0.040
812.42	0.041
812.86	0.041
813.29	0.040
813.73	0.037
814.17	0.040
814.60	0.040
815.04	0.038
815.47	0.040
815.91	0.041
816.34	0.038
816.78	0.041
817.21	0.040
817.65	0.039
818.08	0.042
818.52	0.044
818.95	0.041
819.39	0.037
819.82	0.042
820.25	0.041
820.69	0.039
821.12	0.041
821.56	0.043
821.99	0.042
822.43	0.043
822.86	0.038
823.30	0.037
823.73	0.038
824.17	0.040
824.60	0.043
825.04	0.045
825.47	0.045
825.90	0.038
826.34	0.041
826.77	0.044
827.21	0.041
827.64	0.044
828.08	0.047
828.51	0.042
828.94	0.039
829.38	0.044
829.81	0.044
830.25	0.043
830.68	0.045
831.11	0.051
831.55	0.052
831.98	0.041
832.42	0.045
832.85	0.050
833.28	0.049
833.72	0.047
834.15	0.048
834.58	0.043
835.02	0.048
835.45	0.040
835.88	0.049
836.32	0.051
836.75	0.043
837.19	0.051
837.62	0.051
838.05	0.050
838.49	0.046
838.92	0.048
839.35	0.051
839.79	0.049
840.22	0.044
840.65	0.047
841.09	0.050
841.52	0.043
841.95	0.050
842.39	0.043
842.82	0.047
843.25	0.049
843.68	0.054
844.12	0.052
844.55	0.046
844.98	0.050
845.42	0.052
845.85	0.049
846.28	0.044
846.71	0.050
847.15	0.055
847.58	0.049
848.01	0.046
848.45	0.054
848.88	0.051
849.31	0.047
849.74	0.050
850.18	0.053
850.61	0.050
851.04	0.052
851.47	0.049
851.91	0.055
852.34	0.049
852.77	0.052
853.20	0.055
853.64	0.047
854.07	0.050
854.50	0.049
854.93	0.055
855.36	0.050
855.80	0.044
856.23	0.054
856.66	0.051
857.09	0.050
857.52	0.057
857.96	0.055
858.39	0.050
858.82	0.055
859.25	0.053
859.68	0.058
860.12	0.047
860.55	0.047
860.98	0.058
861.41	0.051
861.84	0.055
862.27	0.051
862.71	0.052
863.14	0.055
863.57	0.053
864.00	0.058
864.43	0.061
864.86	0.050
865.30	0.050
865.73	0.055
866.16	0.055
866.59	0.048
867.02	0.051
867.45	0.047
867.88	0.054
868.31	0.051
868.75	0.054
869.18	0.060
869.61	0.055
870.04	0.048
870.47	0.057
870.90	0.054
871.33	0.052
871.76	0.057
872.19	0.059
872.62	0.060
873.06	0.055
873.49	0.057
873.92	0.056
874.35	0.059
874.78	0.051
875.21	0.056
875.64	0.052
876.07	0.056
876.50	0.063
876.93	0.061
877.36	0.057
877.79	0.061
878.22	0.064
878.65	0.060
879.08	0.055
879.51	0.054
879.94	0.061
880.37	0.054
880.80	0.055
881.23	0.057
881.67	0.060
882.10	0.059
882.53	0.061
882.96	0.061
883.39	0.061
883.82	0.059
884.25	0.057
884.68	0.067
885.11	0.057
885.54	0.060
885.97	0.058
886.39	0.060
886.82	0.063
887.25	0.057
887.68	0.066
888.11	0.062
888.54	0.064
888.97	0.062
889.40	0.059
889.83	0.062
890.26	0.058
890.69	0.069
891.12	0.064
891.55	0.064
891.98	0.062
892.41	0.068
892.84	0.072
893.27	0.061
893.70	0.061
894.13	0.066
894.56	0.069
894.98	0.070
895.41	0.068
895.84	0.072
896.27	0.066
896.70	0.070
897.13	0.074
897.56	0.065
897.99	0.066
898.42	0.069
898.85	0.070
899.27	0.065
899.70	0.063
900.13	0.067
900.56	0.072
900.99	0.069
901.42	0.072
901.85	0.070
902.28	0.069
902.70	0.068
903.13	0.073
903.56	0.072
903.99	0.070
904.42	0.064
904.85	0.068
905.27	0.071
905.70	0.069
906.13	0.074
906.56	0.071
906.99	0.070
907.42	0.070
907.84	0.068
908.27	0.067
908.70	0.073
909.13	0.068
909.56	0.073
909.98	0.065
910.41	0.068
910.84	0.071
911.27	0.070
911.70	0.070
912.12	0.069
912.55	0.072
912.98	0.067
913.41	0.067
913.84	0.068
914.26	0.068
914.69	0.068
915.12	0.069
915.55	0.066
915.97	0.070
916.40	0.069
916.83	0.069
917.26	0.071
917.68	0.072
918.11	0.069
918.54	0.071
918.97	0.073
919.39	0.072
919.82	0.070
920.25	0.072
920.67	0.071
921.10	0.074
921.53	0.075
921.96	0.071
922.38	0.070
922.81	0.074
923.24	0.072
923.66	0.077
924.09	0.075
924.52	0.077
924.94	0.077
925.37	0.079
925.80	0.072
926.22	0.078
926.65	0.076
927.08	0.078
927.50	0.081
927.93	0.087
928.36	0.085
928.78	0.078
929.21	0.083
929.64	0.086
930.06	0.084
930.49	0.085
930.92	0.085
931.34	0.089
931.77	0.088
932.20	0.088
932.62	0.088
933.05	0.092
933.47	0.092
933.90	0.090
934.33	0.097
934.75	0.096
935.18	0.096
935.61	0.099
936.03	0.104
936.46	0.100
936.88	0.103
937.31	0.105
937.73	0.107
938.16	0.106
938.59	0.107
939.01	0.112
939.44	0.114
939.86	0.105
940.29	0.114
940.71	0.108
941.14	0.115
941.57	0.118
941.99	0.118
942.42	0.131
942.84	0.121
943.27	0.128
943.69	0.131
944.12	0.130
944.54	0.139
944.97	0.135
945.39	0.140
945.82	0.138
946.24	0.147
946.67	0.140
947.09	0.147
947.52	0.149
947.94	0.147
948.37	0.155
948.79	0.162
949.22	0.154
949.64	0.161
950.07	0.159
950.49	0.166
950.92	0.166
951.34	0.165
951.77	0.174
952.19	0.182
952.62	0.167
953.04	0.177
953.47	0.179
953.89	0.190
954.32	0.191
954.74	0.190
955.17	0.191
955.59	0.194
956.01	0.204
956.44	0.205
956.86	0.207
957.29	0.206
957.71	0.209
958.14	0.213
958.56	0.213
958.98	0.213
959.41	0.222
959.83	0.216
960.26	0.221
960.68	0.228
961.10	0.223
961.53	0.224
961.95	0.224
962.38	0.235
962.80	0.230
963.22	0.232
963.65	0.233
964.07	0.227
964.50	0.227
964.92	0.234
965.34	0.239
965.77	0.228
966.19	0.230
966.61	0.238
967.04	0.239
967.46	0.237
967.88	0.236
968.31	0.232
968.73	0.240
969.15	0.235
969.58	0.238
970.00	0.242
970.42	0.241
970.85	0.236
971.27	0.244
971.69	0.245
972.12	0.252
972.54	0.241
972.96	0.250
973.39	0.241
973.81	0.241
974.23	0.246
974.65	0.238
975.08	0.239
975.50	0.240
975.92	0.247
976.35	0.242
976.77	0.246
977.19	0.243
977.61	0.239
978.04	0.241
978.46	0.234
978.88	0.246
979.30	0.247
979.73	0.239
980.15	0.240
980.57	0.253
980.99	0.253
981.42	0.240
981.84	0.246
982.26	0.251
982.68	0.244
983.11	0.240
983.53	0.249
983.95	0.240
984.37	0.236
984.79	0.240
985.22	0.240
985.64	0.243
986.06	0.240
986.48	0.240
986.90	0.240
987.33	0.237
987.75	0.231
988.17	0.241
988.59	0.243
989.01	0.246
989.43	0.235
989.86	0.233
990.28	0.237
990.70	0.241
991.12	0.227
991.54	0.233
991.96	0.234
992.39	0.229
992.81	0.228
993.23	0.228
993.65	0.228
994.07	0.223
994.49	0.228
994.91	0.223
995.34	0.226
995.76	0.219
996.18	0.228
996.60	0.231
997.02	0.225
997.44	0.219
997.86	0.224
998.28	0.225
998.70	0.233
999.12	0.228
999.55	0.220
999.97	0.216
1000.39	0.226
1000.81	0.217
1001.23	0.217
1001.65	0.216
1002.07	0.220
1002.49	0.201
1002.91	0.207
1003.33	0.218
1003.75	0.214
1004.17	0.205
1004.59	0.212
1005.01	0.216
1005.43	0.214
1005.85	0.203
1006.28	0.204
1006.70	0.206
1007.12	0.204
1007.54	0.198
1007.96	0.207
1008.38	0.197
1008.80	0.201
1009.22	0.199
1009.64	0.192
1010.06	0.203
1010.48	0.202
1010.90	0.194
1011.32	0.200
1011.74	0.191
1012.16	0.185
1012.58	0.190
1013.00	0.194
1013.42	0.179
1013.84	0.187
1014.26	0.182
1014.67	0.190
1015.09	0.185
1015.51	0.179
1015.93	0.185
1016.35	0.193
1016.77	0.172
1017.19	0.184
1017.61	0.181
1018.03	0.181
1018.45	0.183
1018.87	0.174
1019.29	0.173
1019.71	0.170
1020.13	0.178
1020.55	0.172
1020.97	0.163
1021.38	0.179
1021.80	0.176
1022.22	0.177
1022.64	0.163
1023.06	0.159
1023.48	0.168
1023.90	0.162
1024.32	0.162
1024.74	0.158
1025.15	0.157
1025.57	0.167
1025.99	0.147
1026.41	0.151
1026.83	0.159
1027.25	0.164
1027.67	0.155
1028.08	0.166
1028.50	0.163
1028.92	0.147
1029.34	0.146
1029.76	0.156
1030.18	0.151
1030.60	0.145
1031.01	0.159
1031.43	0.140
1031.85	0.138
1032.27	0.147
1032.69	0.145
1033.10	0.133
1033.52	0.140
1033.94	0.134
1034.36	0.148
1034.78	0.143
1035.19	0.136
1035.61	0.147
1036.03	0.130
1036.45	0.120
1036.87	0.134
1037.28	0.143
1037.70	0.126
1038.12	0.137
1038.54	0.137
1038.95	0.136
1039.37	0.138
1039.79	0.129
1040.21	0.129
1040.62	0.136
1041.04	0.117
1041.46	0.112
1041.88	0.126
1042.29	0.117
1042.71	0.120
1043.13	0.145
1043.55	0.135
1043.96	0.133
1044.38	0.124
1044.80	0.124
1045.21	0.119
1045.63	0.093
1046.05	0.122
1046.47	0.127
1046.88	0.113
1047.30	0.127
1047.72	0.136
1048.13	0.123
1048.55	0.126
1048.97	0.118
1049.38	0.122
1049.80	0.110
1050.22	0.124
1050.63	0.101
1051.05	0.116
1051.47	0.094
1051.88	0.119
1052.30	0.131
1052.72	0.089
1053.13	0.103
1053.55	0.111
1053.97	0.092
1054.38	0.114
1054.80	0.108
1055.21	0.126
1055.63	0.115
1056.05	0.088
1056.46	0.118
1056.88	0.126
1057.29	0.124
1057.71	0.119
1058.13	0.103
1058.54	0.123
1058.96	0.113
1059.37	0.120
1059.79	0.139
1060.21	0.135
1060.62	0.075
1061.04	0.139
1061.45	0.157
1061.87	0.112
1062.28	0.111
1062.70	0.169
1063.12	0.138
1063.53	0.132
1063.95	0.128
1064.36	0.148
1064.78	0.131
1065.19	0.091
1065.61	0.104
1066.02	0.165
1066.44	0.122
1066.85	0.130
1067.27	0.203
1067.68	0.133
1068.10	0.137
1068.51	0.098
1068.93	0.171
1069.35	0.188
1069.76	0.081
1070.17	0.150
1070.59	0.214
1071.00	0.119
1071.42	0.143
1071.83	0.220
1072.25	0.218
1072.66	0.129
1073.08	0.095
1073.49	0.216
1073.91	0.051
1074.32	0.092
1074.74	0.186
1075.15	0.159
1075.57	0.119
1075.98	0.111
1076.40	0.248
1076.81	0.104
1077.22	0.071
1077.64	0.169
1078.05	0.361
1078.47	0.211
1078.88	0.104
1079.30	0.199
1079.71	0.068
1080.12	0.095
1080.54	0.071
1080.95	0.303
1081.37	0.092
1081.78	0.061
1082.19	0.200
1082.61	0.208
1083.02	0.218
1083.44	0.247
1083.85	0.364
1084.26	0.044
1084.68	0.033
1085.09	0.125
1085.50	0.400
1085.92	0.127
1086.33	0.203
1086.74	0.658
1087.16	0.409
1087.57	0.167
1087.98	0.104
1088.40	0.408
1088.81	0.299
1089.22	-0.019
1089.64	0.519
1090.05	0.514
1090.46	0.238
1090.88	0.413
1091.29	0.542
1091.70	0.233
1092.12	0.298
1092.53	-0.000
1092.94	0.296
1093.36	0.104
1093.77	-0.000
1094.18	0.927
1094.59	-0.019
1095.01	0.240
1095.42	0.674
1095.83	0.501
1096.25	1.158
1096.66	-0.000
1097.07	0.256
1097.48	0.359
1097.90	0.913
1098.31	0.146
1098.72	0.232
1099.13	0.504
>>>>>End Processed Spectral Data<<<<<
