SpectraSuite Data File
++++++++++++++++++++++++++++++++++++
Date: Tue Jul 11 14:35:59 CEST 2017
User: IPCE
Dark Spectrum Present: Yes
Reference Spectrum Present: Yes
Number of Sampled Component Spectra: 1
Spectrometers: HR+C0708
Integration Time (usec): 1000 (HR+C0708)
Spectra Averaged: 10 (HR+C0708)
Boxcar Smoothing: 0 (HR+C0708)
Correct for Electrical Dark: No (HR+C0708)
Strobe/Lamp Enabled: No (HR+C0708)
Correct for Detector Non-linearity: No (HR+C0708)
Correct for Stray Light: No (HR+C0708)
Number of Pixels in Processed Spectrum: 2048
>>>>>Begin Processed Spectral Data<<<<<
188.76	0.306
189.23	0.334
189.70	0.503
190.17	0.602
190.64	0.152
191.12	0.044
191.59	0.333
192.06	1.613
192.53	0.307
193.01	0.842
193.48	0.461
193.95	-0.216
194.42	0.602
194.90	0.256
195.37	-0.000
195.84	-0.000
196.31	0.160
196.78	1.968
197.26	0.804
197.73	0.070
198.20	0.509
198.67	-0.000
199.14	-0.000
199.62	-0.000
200.09	0.141
200.56	0.316
201.03	0.397
201.50	0.359
201.97	0.641
202.45	0.345
202.92	0.392
203.39	0.428
203.86	0.477
204.33	0.258
204.80	0.325
205.28	0.806
205.75	0.606
206.22	0.334
206.69	0.297
207.16	0.249
207.63	0.480
208.11	0.487
208.58	0.743
209.05	0.631
209.52	0.295
209.99	0.575
210.46	0.369
210.93	0.416
211.41	0.326
211.88	0.438
212.35	0.468
212.82	0.473
213.29	0.474
213.76	0.293
214.23	0.283
214.70	0.598
215.18	0.415
215.65	0.449
216.12	0.460
216.59	0.317
217.06	0.672
217.53	0.458
218.00	0.422
218.47	0.454
218.94	0.464
219.41	0.337
219.89	0.369
220.36	0.562
220.83	0.613
221.30	0.518
221.77	0.449
222.24	0.463
222.71	0.466
223.18	0.391
223.65	0.618
224.12	0.647
224.59	0.464
225.06	0.570
225.54	0.611
226.01	0.690
226.48	0.620
226.95	0.957
227.42	1.022
227.89	1.025
228.36	0.812
228.83	1.078
229.30	1.407
229.77	1.048
230.24	1.524
230.71	1.108
231.18	1.119
231.65	1.157
232.12	1.360
232.59	1.334
233.06	1.442
233.53	1.471
234.00	1.424
234.47	1.735
234.94	1.559
235.41	1.597
235.88	1.837
236.35	1.691
236.82	1.816
237.29	1.814
237.76	1.885
238.23	1.967
238.70	1.862
239.17	2.087
239.64	2.711
240.11	1.921
240.58	1.840
241.05	2.101
241.52	2.103
241.99	2.016
242.46	2.198
242.93	2.180
243.40	2.054
243.87	2.164
244.34	2.077
244.81	2.425
245.28	2.181
245.75	2.163
246.22	2.165
246.69	2.229
247.16	2.377
247.63	2.401
248.10	2.364
248.57	2.309
249.04	2.262
249.51	2.242
249.98	2.356
250.45	2.166
250.92	2.073
251.39	2.058
251.85	2.024
252.32	1.876
252.79	1.776
253.26	1.694
253.73	1.627
254.20	1.516
254.67	1.428
255.14	1.358
255.61	1.302
256.08	1.249
256.55	1.193
257.02	1.143
257.49	1.103
257.95	1.067
258.42	1.037
258.89	0.996
259.36	0.974
259.83	0.946
260.30	0.928
260.77	0.904
261.24	0.881
261.71	0.871
262.17	0.853
262.64	0.837
263.11	0.824
263.58	0.806
264.05	0.794
264.52	0.781
264.99	0.770
265.46	0.760
265.92	0.752
266.39	0.738
266.86	0.729
267.33	0.719
267.80	0.712
268.27	0.703
268.74	0.694
269.20	0.684
269.67	0.678
270.14	0.671
270.61	0.665
271.08	0.657
271.55	0.649
272.01	0.648
272.48	0.639
272.95	0.634
273.42	0.626
273.89	0.620
274.36	0.616
274.82	0.614
275.29	0.608
275.76	0.603
276.23	0.604
276.70	0.597
277.16	0.594
277.63	0.590
278.10	0.583
278.57	0.584
279.04	0.577
279.50	0.577
279.97	0.572
280.44	0.576
280.91	0.574
281.38	0.569
281.84	0.568
282.31	0.566
282.78	0.567
283.25	0.565
283.72	0.565
284.18	0.560
284.65	0.562
285.12	0.562
285.59	0.560
286.05	0.557
286.52	0.558
286.99	0.559
287.46	0.559
287.92	0.562
288.39	0.559
288.86	0.561
289.33	0.554
289.79	0.555
290.26	0.559
290.73	0.554
291.20	0.553
291.66	0.551
292.13	0.546
292.60	0.542
293.07	0.540
293.53	0.533
294.00	0.533
294.47	0.528
294.93	0.522
295.40	0.516
295.87	0.505
296.34	0.505
296.80	0.499
297.27	0.491
297.74	0.482
298.20	0.474
298.67	0.469
299.14	0.464
299.60	0.455
300.07	0.450
300.54	0.438
301.01	0.434
301.47	0.427
301.94	0.420
302.41	0.413
302.87	0.409
303.34	0.405
303.81	0.394
304.27	0.386
304.74	0.379
305.21	0.374
305.67	0.370
306.14	0.366
306.61	0.360
307.07	0.356
307.54	0.349
308.01	0.345
308.47	0.343
308.94	0.338
309.40	0.333
309.87	0.328
310.34	0.329
310.80	0.325
311.27	0.323
311.74	0.319
312.20	0.318
312.67	0.313
313.13	0.309
313.60	0.310
314.07	0.306
314.53	0.302
315.00	0.301
315.47	0.300
315.93	0.301
316.40	0.297
316.86	0.296
317.33	0.294
317.80	0.295
318.26	0.292
318.73	0.290
319.19	0.292
319.66	0.287
320.13	0.286
320.59	0.286
321.06	0.285
321.52	0.283
321.99	0.279
322.45	0.279
322.92	0.280
323.39	0.275
323.85	0.273
324.32	0.272
324.78	0.272
325.25	0.270
325.71	0.268
326.18	0.269
326.64	0.268
327.11	0.268
327.58	0.264
328.04	0.264
328.51	0.261
328.97	0.262
329.44	0.261
329.90	0.258
330.37	0.254
330.83	0.250
331.30	0.252
331.76	0.249
332.23	0.249
332.69	0.249
333.16	0.246
333.62	0.247
334.09	0.243
334.56	0.245
335.02	0.240
335.49	0.236
335.95	0.237
336.42	0.232
336.88	0.232
337.35	0.235
337.81	0.231
338.28	0.229
338.74	0.231
339.20	0.231
339.67	0.226
340.13	0.226
340.60	0.224
341.06	0.226
341.53	0.221
341.99	0.218
342.46	0.216
342.92	0.218
343.39	0.222
343.85	0.215
344.32	0.215
344.78	0.216
345.25	0.211
345.71	0.215
346.17	0.214
346.64	0.218
347.10	0.211
347.57	0.211
348.03	0.206
348.50	0.206
348.96	0.207
349.43	0.207
349.89	0.208
350.35	0.203
350.82	0.206
351.28	0.204
351.75	0.205
352.21	0.199
352.67	0.198
353.14	0.198
353.60	0.195
354.07	0.195
354.53	0.192
355.00	0.189
355.46	0.191
355.92	0.189
356.39	0.185
356.85	0.182
357.31	0.184
357.78	0.183
358.24	0.177
358.71	0.179
359.17	0.176
359.63	0.176
360.10	0.177
360.56	0.171
361.03	0.171
361.49	0.169
361.95	0.166
362.42	0.167
362.88	0.167
363.34	0.166
363.81	0.162
364.27	0.163
364.73	0.160
365.20	0.164
365.66	0.161
366.12	0.164
366.59	0.159
367.05	0.161
367.51	0.156
367.98	0.157
368.44	0.160
368.90	0.154
369.37	0.156
369.83	0.158
370.29	0.157
370.76	0.154
371.22	0.154
371.68	0.153
372.15	0.154
372.61	0.155
373.07	0.155
373.54	0.152
374.00	0.155
374.46	0.154
374.92	0.155
375.39	0.154
375.85	0.151
376.31	0.152
376.78	0.150
377.24	0.150
377.70	0.149
378.16	0.151
378.63	0.152
379.09	0.147
379.55	0.148
380.01	0.149
380.48	0.151
380.94	0.149
381.40	0.150
381.87	0.148
382.33	0.148
382.79	0.147
383.25	0.149
383.72	0.148
384.18	0.145
384.64	0.147
385.10	0.145
385.56	0.144
386.03	0.147
386.49	0.147
386.95	0.143
387.41	0.147
387.88	0.144
388.34	0.145
388.80	0.147
389.26	0.141
389.72	0.148
390.19	0.146
390.65	0.145
391.11	0.144
391.57	0.143
392.04	0.142
392.50	0.144
392.96	0.144
393.42	0.143
393.88	0.144
394.34	0.142
394.81	0.141
395.27	0.143
395.73	0.145
396.19	0.138
396.65	0.141
397.12	0.139
397.58	0.140
398.04	0.142
398.50	0.141
398.96	0.143
399.42	0.142
399.89	0.140
400.35	0.141
400.81	0.141
401.27	0.139
401.73	0.138
402.19	0.138
402.65	0.137
403.12	0.137
403.58	0.132
404.04	0.137
404.50	0.136
404.96	0.135
405.42	0.134
405.88	0.135
406.34	0.135
406.81	0.135
407.27	0.132
407.73	0.132
408.19	0.130
408.65	0.133
409.11	0.131
409.57	0.132
410.03	0.133
410.49	0.130
410.96	0.129
411.42	0.129
411.88	0.130
412.34	0.130
412.80	0.129
413.26	0.131
413.72	0.131
414.18	0.131
414.64	0.126
415.10	0.127
415.56	0.129
416.02	0.125
416.48	0.128
416.95	0.127
417.41	0.129
417.87	0.126
418.33	0.126
418.79	0.127
419.25	0.127
419.71	0.130
420.17	0.125
420.63	0.128
421.09	0.125
421.55	0.125
422.01	0.126
422.47	0.128
422.93	0.127
423.39	0.129
423.85	0.127
424.31	0.128
424.77	0.124
425.23	0.128
425.69	0.122
426.15	0.124
426.61	0.125
427.07	0.123
427.53	0.122
427.99	0.124
428.45	0.123
428.91	0.122
429.37	0.121
429.83	0.123
430.29	0.125
430.75	0.126
431.21	0.122
431.67	0.124
432.13	0.118
432.59	0.120
433.05	0.122
433.51	0.121
433.97	0.123
434.43	0.124
434.89	0.123
435.35	0.120
435.81	0.117
436.27	0.119
436.73	0.121
437.19	0.122
437.65	0.122
438.11	0.120
438.57	0.120
439.03	0.120
439.48	0.119
439.94	0.119
440.40	0.119
440.86	0.116
441.32	0.115
441.78	0.119
442.24	0.116
442.70	0.117
443.16	0.118
443.62	0.124
444.08	0.116
444.54	0.119
444.99	0.115
445.45	0.121
445.91	0.116
446.37	0.115
446.83	0.116
447.29	0.115
447.75	0.114
448.21	0.114
448.67	0.114
449.12	0.118
449.58	0.113
450.04	0.119
450.50	0.115
450.96	0.115
451.42	0.116
451.88	0.115
452.34	0.115
452.79	0.112
453.25	0.115
453.71	0.114
454.17	0.113
454.63	0.111
455.09	0.115
455.55	0.117
456.00	0.114
456.46	0.113
456.92	0.112
457.38	0.111
457.84	0.112
458.30	0.112
458.75	0.113
459.21	0.112
459.67	0.114
460.13	0.111
460.59	0.114
461.04	0.111
461.50	0.112
461.96	0.113
462.42	0.113
462.88	0.112
463.33	0.111
463.79	0.112
464.25	0.113
464.71	0.112
465.17	0.113
465.62	0.114
466.08	0.112
466.54	0.115
467.00	0.112
467.46	0.112
467.91	0.112
468.37	0.112
468.83	0.111
469.29	0.115
469.74	0.112
470.20	0.113
470.66	0.114
471.12	0.113
471.57	0.113
472.03	0.114
472.49	0.114
472.95	0.113
473.40	0.114
473.86	0.116
474.32	0.117
474.78	0.113
475.23	0.112
475.69	0.114
476.15	0.113
476.60	0.117
477.06	0.115
477.52	0.113
477.98	0.114
478.43	0.113
478.89	0.115
479.35	0.113
479.80	0.114
480.26	0.110
480.72	0.112
481.18	0.114
481.63	0.113
482.09	0.109
482.55	0.111
483.00	0.114
483.46	0.112
483.92	0.109
484.37	0.111
484.83	0.112
485.29	0.113
485.74	0.112
486.20	0.111
486.66	0.114
487.11	0.111
487.57	0.112
488.03	0.113
488.48	0.110
488.94	0.112
489.40	0.110
489.85	0.113
490.31	0.111
490.77	0.110
491.22	0.111
491.68	0.111
492.13	0.110
492.59	0.111
493.05	0.112
493.50	0.113
493.96	0.111
494.42	0.111
494.87	0.112
495.33	0.110
495.78	0.112
496.24	0.111
496.70	0.112
497.15	0.112
497.61	0.111
498.06	0.112
498.52	0.108
498.98	0.111
499.43	0.111
499.89	0.110
500.34	0.111
500.80	0.111
501.25	0.111
501.71	0.111
502.17	0.113
502.62	0.111
503.08	0.112
503.53	0.110
503.99	0.109
504.44	0.111
504.90	0.108
505.36	0.111
505.81	0.110
506.27	0.110
506.72	0.111
507.18	0.109
507.63	0.107
508.09	0.109
508.54	0.111
509.00	0.110
509.45	0.110
509.91	0.109
510.36	0.110
510.82	0.110
511.27	0.112
511.73	0.111
512.19	0.109
512.64	0.108
513.10	0.107
513.55	0.108
514.01	0.109
514.46	0.110
514.92	0.109
515.37	0.108
515.83	0.109
516.28	0.108
516.73	0.109
517.19	0.107
517.64	0.107
518.10	0.106
518.55	0.107
519.01	0.109
519.46	0.110
519.92	0.106
520.37	0.109
520.83	0.111
521.28	0.107
521.74	0.105
522.19	0.107
522.65	0.106
523.10	0.109
523.55	0.105
524.01	0.107
524.46	0.108
524.92	0.105
525.37	0.107
525.83	0.109
526.28	0.109
526.73	0.107
527.19	0.107
527.64	0.107
528.10	0.108
528.55	0.107
529.01	0.110
529.46	0.108
529.91	0.108
530.37	0.108
530.82	0.108
531.28	0.108
531.73	0.108
532.18	0.109
532.64	0.108
533.09	0.108
533.54	0.108
534.00	0.107
534.45	0.108
534.91	0.109
535.36	0.108
535.81	0.111
536.27	0.110
536.72	0.109
537.17	0.110
537.63	0.110
538.08	0.109
538.54	0.111
538.99	0.112
539.44	0.109
539.90	0.109
540.35	0.109
540.80	0.112
541.26	0.110
541.71	0.115
542.16	0.113
542.62	0.113
543.07	0.114
543.52	0.114
543.98	0.112
544.43	0.114
544.88	0.114
545.34	0.114
545.79	0.115
546.24	0.114
546.69	0.115
547.15	0.115
547.60	0.116
548.05	0.115
548.51	0.116
548.96	0.115
549.41	0.117
549.86	0.115
550.32	0.117
550.77	0.115
551.22	0.116
551.68	0.117
552.13	0.120
552.58	0.120
553.03	0.119
553.49	0.119
553.94	0.121
554.39	0.123
554.84	0.121
555.30	0.121
555.75	0.122
556.20	0.122
556.65	0.122
557.11	0.125
557.56	0.121
558.01	0.122
558.46	0.124
558.92	0.124
559.37	0.127
559.82	0.125
560.27	0.127
560.72	0.128
561.18	0.127
561.63	0.127
562.08	0.126
562.53	0.128
562.99	0.131
563.44	0.130
563.89	0.130
564.34	0.131
564.79	0.130
565.25	0.133
565.70	0.133
566.15	0.134
566.60	0.133
567.05	0.134
567.50	0.135
567.96	0.136
568.41	0.137
568.86	0.136
569.31	0.137
569.76	0.137
570.21	0.140
570.67	0.142
571.12	0.141
571.57	0.140
572.02	0.142
572.47	0.141
572.92	0.143
573.37	0.145
573.83	0.143
574.28	0.145
574.73	0.145
575.18	0.145
575.63	0.148
576.08	0.147
576.53	0.148
576.98	0.149
577.44	0.152
577.89	0.151
578.34	0.151
578.79	0.153
579.24	0.155
579.69	0.156
580.14	0.156
580.59	0.157
581.04	0.158
581.49	0.160
581.95	0.161
582.40	0.161
582.85	0.162
583.30	0.163
583.75	0.165
584.20	0.165
584.65	0.167
585.10	0.168
585.55	0.170
586.00	0.171
586.45	0.171
586.90	0.173
587.35	0.174
587.80	0.177
588.25	0.178
588.71	0.179
589.16	0.178
589.61	0.183
590.06	0.182
590.51	0.184
590.96	0.186
591.41	0.188
591.86	0.190
592.31	0.194
592.76	0.193
593.21	0.195
593.66	0.200
594.11	0.201
594.56	0.201
595.01	0.200
595.46	0.206
595.91	0.206
596.36	0.208
596.81	0.209
597.26	0.209
597.71	0.214
598.16	0.212
598.61	0.215
599.06	0.215
599.51	0.217
599.96	0.222
600.41	0.223
600.86	0.223
601.31	0.221
601.76	0.229
602.21	0.225
602.65	0.230
603.10	0.232
603.55	0.234
604.00	0.237
604.45	0.237
604.90	0.239
605.35	0.240
605.80	0.243
606.25	0.245
606.70	0.245
607.15	0.246
607.60	0.248
608.05	0.251
608.50	0.249
608.95	0.251
609.39	0.254
609.84	0.254
610.29	0.254
610.74	0.254
611.19	0.256
611.64	0.260
612.09	0.260
612.54	0.261
612.99	0.259
613.44	0.259
613.88	0.261
614.33	0.264
614.78	0.263
615.23	0.265
615.68	0.264
616.13	0.267
616.58	0.267
617.03	0.265
617.47	0.268
617.92	0.267
618.37	0.269
618.82	0.268
619.27	0.270
619.72	0.270
620.17	0.270
620.61	0.271
621.06	0.271
621.51	0.277
621.96	0.273
622.41	0.272
622.86	0.275
623.30	0.275
623.75	0.276
624.20	0.278
624.65	0.277
625.10	0.277
625.54	0.281
625.99	0.279
626.44	0.283
626.89	0.282
627.34	0.282
627.78	0.284
628.23	0.286
628.68	0.286
629.13	0.287
629.58	0.287
630.02	0.290
630.47	0.291
630.92	0.292
631.37	0.292
631.81	0.296
632.26	0.295
632.71	0.300
633.16	0.299
633.61	0.301
634.05	0.303
634.50	0.305
634.95	0.307
635.40	0.310
635.84	0.310
636.29	0.312
636.74	0.314
637.18	0.317
637.63	0.318
638.08	0.319
638.53	0.324
638.97	0.326
639.42	0.329
639.87	0.331
640.32	0.332
640.76	0.335
641.21	0.337
641.66	0.340
642.10	0.342
642.55	0.346
643.00	0.347
643.44	0.351
643.89	0.352
644.34	0.355
644.79	0.360
645.23	0.362
645.68	0.365
646.13	0.367
646.57	0.370
647.02	0.373
647.47	0.375
647.91	0.377
648.36	0.382
648.81	0.384
649.25	0.386
649.70	0.388
650.15	0.388
650.59	0.393
651.04	0.396
651.48	0.399
651.93	0.399
652.38	0.404
652.82	0.403
653.27	0.406
653.72	0.409
654.16	0.411
654.61	0.414
655.06	0.415
655.50	0.415
655.95	0.416
656.39	0.421
656.84	0.423
657.29	0.425
657.73	0.425
658.18	0.429
658.62	0.430
659.07	0.433
659.52	0.432
659.96	0.434
660.41	0.431
660.85	0.434
661.30	0.437
661.74	0.437
662.19	0.437
662.64	0.437
663.08	0.439
663.53	0.441
663.97	0.438
664.42	0.442
664.86	0.439
665.31	0.440
665.75	0.437
666.20	0.438
666.65	0.437
667.09	0.437
667.54	0.435
667.98	0.430
668.43	0.429
668.87	0.426
669.32	0.425
669.76	0.423
670.21	0.420
670.65	0.413
671.10	0.413
671.54	0.410
671.99	0.405
672.43	0.398
672.88	0.394
673.32	0.390
673.77	0.383
674.21	0.379
674.66	0.375
675.10	0.369
675.55	0.363
675.99	0.355
676.44	0.350
676.88	0.341
677.33	0.336
677.77	0.331
678.22	0.320
678.66	0.319
679.11	0.311
679.55	0.305
679.99	0.294
680.44	0.288
680.88	0.283
681.33	0.274
681.77	0.265
682.22	0.261
682.66	0.252
683.11	0.247
683.55	0.239
683.99	0.235
684.44	0.227
684.88	0.223
685.33	0.216
685.77	0.208
686.21	0.205
686.66	0.199
687.10	0.194
687.55	0.188
687.99	0.181
688.44	0.178
688.88	0.174
689.32	0.170
689.77	0.163
690.21	0.159
690.65	0.157
691.10	0.151
691.54	0.145
691.99	0.142
692.43	0.140
692.87	0.137
693.32	0.133
693.76	0.130
694.20	0.129
694.65	0.125
695.09	0.123
695.53	0.120
695.98	0.119
696.42	0.115
696.86	0.111
697.31	0.110
697.75	0.108
698.19	0.107
698.64	0.104
699.08	0.106
699.52	0.102
699.97	0.101
700.41	0.100
700.85	0.098
701.30	0.095
701.74	0.093
702.18	0.095
702.63	0.091
703.07	0.092
703.51	0.092
703.96	0.091
704.40	0.088
704.84	0.086
705.28	0.086
705.73	0.087
706.17	0.086
706.61	0.084
707.06	0.084
707.50	0.080
707.94	0.079
708.38	0.082
708.83	0.079
709.27	0.082
709.71	0.081
710.15	0.081
710.60	0.082
711.04	0.081
711.48	0.077
711.92	0.081
712.37	0.076
712.81	0.076
713.25	0.074
713.69	0.080
714.13	0.072
714.58	0.073
715.02	0.076
715.46	0.074
715.90	0.075
716.35	0.077
716.79	0.075
717.23	0.076
717.67	0.077
718.11	0.075
718.56	0.073
719.00	0.075
719.44	0.075
719.88	0.074
720.32	0.075
720.76	0.074
721.21	0.074
721.65	0.074
722.09	0.076
722.53	0.075
722.97	0.075
723.41	0.073
723.86	0.074
724.30	0.077
724.74	0.076
725.18	0.075
725.62	0.078
726.06	0.075
726.50	0.077
726.95	0.073
727.39	0.074
727.83	0.075
728.27	0.074
728.71	0.077
729.15	0.077
729.59	0.074
730.03	0.076
730.48	0.078
730.92	0.076
731.36	0.075
731.80	0.073
732.24	0.076
732.68	0.075
733.12	0.078
733.56	0.077
734.00	0.076
734.44	0.075
734.89	0.079
735.33	0.078
735.77	0.079
736.21	0.077
736.65	0.077
737.09	0.079
737.53	0.079
737.97	0.078
738.41	0.077
738.85	0.078
739.29	0.078
739.73	0.076
740.17	0.079
740.61	0.077
741.05	0.078
741.49	0.077
741.93	0.074
742.37	0.078
742.81	0.078
743.26	0.077
743.70	0.077
744.14	0.081
744.58	0.075
745.02	0.077
745.46	0.079
745.90	0.077
746.34	0.078
746.78	0.075
747.22	0.076
747.66	0.076
748.10	0.077
748.54	0.076
748.98	0.074
749.42	0.075
749.86	0.079
750.29	0.078
750.73	0.078
751.17	0.077
751.61	0.077
752.05	0.078
752.49	0.075
752.93	0.074
753.37	0.077
753.81	0.077
754.25	0.073
754.69	0.077
755.13	0.075
755.57	0.075
756.01	0.074
756.45	0.076
756.89	0.077
757.33	0.075
757.77	0.075
758.21	0.076
758.64	0.074
759.08	0.075
759.52	0.075
759.96	0.073
760.40	0.073
760.84	0.076
761.28	0.076
761.72	0.076
762.16	0.074
762.60	0.076
763.03	0.075
763.47	0.070
763.91	0.075
764.35	0.076
764.79	0.074
765.23	0.075
765.67	0.076
766.11	0.074
766.54	0.075
766.98	0.072
767.42	0.073
767.86	0.073
768.30	0.069
768.74	0.074
769.17	0.073
769.61	0.075
770.05	0.076
770.49	0.073
770.93	0.076
771.37	0.074
771.80	0.075
772.24	0.079
772.68	0.076
773.12	0.074
773.56	0.077
774.00	0.078
774.43	0.074
774.87	0.074
775.31	0.075
775.75	0.075
776.19	0.075
776.62	0.077
777.06	0.074
777.50	0.075
777.94	0.075
778.37	0.072
778.81	0.070
779.25	0.075
779.69	0.075
780.13	0.073
780.56	0.072
781.00	0.076
781.44	0.073
781.88	0.074
782.31	0.073
782.75	0.074
783.19	0.074
783.63	0.072
784.06	0.070
784.50	0.073
784.94	0.072
785.37	0.073
785.81	0.077
786.25	0.073
786.69	0.077
787.12	0.073
787.56	0.073
788.00	0.072
788.43	0.071
788.87	0.072
789.31	0.077
789.75	0.079
790.18	0.077
790.62	0.071
791.06	0.073
791.49	0.070
791.93	0.075
792.37	0.073
792.80	0.072
793.24	0.069
793.68	0.071
794.11	0.069
794.55	0.071
794.99	0.071
795.42	0.073
795.86	0.074
796.30	0.076
796.73	0.074
797.17	0.072
797.61	0.073
798.04	0.073
798.48	0.076
798.91	0.073
799.35	0.073
799.79	0.073
800.22	0.069
800.66	0.070
801.10	0.070
801.53	0.076
801.97	0.072
802.40	0.070
802.84	0.069
803.28	0.070
803.71	0.072
804.15	0.069
804.58	0.074
805.02	0.072
805.46	0.073
805.89	0.073
806.33	0.068
806.76	0.071
807.20	0.066
807.63	0.071
808.07	0.070
808.51	0.066
808.94	0.073
809.38	0.074
809.81	0.068
810.25	0.073
810.68	0.072
811.12	0.073
811.55	0.068
811.99	0.071
812.42	0.071
812.86	0.074
813.29	0.075
813.73	0.071
814.17	0.070
814.60	0.071
815.04	0.072
815.47	0.071
815.91	0.071
816.34	0.070
816.78	0.070
817.21	0.071
817.65	0.067
818.08	0.073
818.52	0.073
818.95	0.073
819.39	0.072
819.82	0.071
820.25	0.070
820.69	0.071
821.12	0.071
821.56	0.071
821.99	0.068
822.43	0.074
822.86	0.067
823.30	0.072
823.73	0.068
824.17	0.071
824.60	0.072
825.04	0.071
825.47	0.073
825.90	0.070
826.34	0.071
826.77	0.072
827.21	0.071
827.64	0.072
828.08	0.074
828.51	0.072
828.94	0.074
829.38	0.074
829.81	0.074
830.25	0.076
830.68	0.075
831.11	0.074
831.55	0.079
831.98	0.070
832.42	0.072
832.85	0.081
833.28	0.076
833.72	0.076
834.15	0.080
834.58	0.079
835.02	0.075
835.45	0.074
835.88	0.077
836.32	0.083
836.75	0.073
837.19	0.080
837.62	0.078
838.05	0.076
838.49	0.080
838.92	0.077
839.35	0.082
839.79	0.079
840.22	0.077
840.65	0.078
841.09	0.075
841.52	0.081
841.95	0.080
842.39	0.076
842.82	0.079
843.25	0.082
843.68	0.082
844.12	0.078
844.55	0.075
844.98	0.076
845.42	0.080
845.85	0.078
846.28	0.081
846.71	0.080
847.15	0.083
847.58	0.083
848.01	0.077
848.45	0.083
848.88	0.077
849.31	0.082
849.74	0.079
850.18	0.083
850.61	0.082
851.04	0.083
851.47	0.082
851.91	0.082
852.34	0.085
852.77	0.082
853.20	0.082
853.64	0.077
854.07	0.082
854.50	0.077
854.93	0.080
855.36	0.076
855.80	0.078
856.23	0.082
856.66	0.080
857.09	0.081
857.52	0.082
857.96	0.080
858.39	0.083
858.82	0.081
859.25	0.083
859.68	0.079
860.12	0.076
860.55	0.077
860.98	0.089
861.41	0.080
861.84	0.083
862.27	0.077
862.71	0.084
863.14	0.082
863.57	0.079
864.00	0.089
864.43	0.086
864.86	0.084
865.30	0.080
865.73	0.081
866.16	0.088
866.59	0.081
867.02	0.082
867.45	0.079
867.88	0.080
868.31	0.079
868.75	0.086
869.18	0.088
869.61	0.086
870.04	0.083
870.47	0.079
870.90	0.085
871.33	0.083
871.76	0.078
872.19	0.084
872.62	0.088
873.06	0.077
873.49	0.082
873.92	0.080
874.35	0.084
874.78	0.084
875.21	0.089
875.64	0.082
876.07	0.082
876.50	0.095
876.93	0.089
877.36	0.087
877.79	0.086
878.22	0.087
878.65	0.087
879.08	0.092
879.51	0.085
879.94	0.088
880.37	0.083
880.80	0.087
881.23	0.082
881.67	0.086
882.10	0.083
882.53	0.087
882.96	0.087
883.39	0.090
883.82	0.088
884.25	0.081
884.68	0.086
885.11	0.085
885.54	0.097
885.97	0.087
886.39	0.088
886.82	0.094
887.25	0.088
887.68	0.088
888.11	0.089
888.54	0.092
888.97	0.090
889.40	0.090
889.83	0.096
890.26	0.092
890.69	0.091
891.12	0.092
891.55	0.094
891.98	0.093
892.41	0.091
892.84	0.093
893.27	0.089
893.70	0.091
894.13	0.096
894.56	0.089
894.98	0.092
895.41	0.092
895.84	0.094
896.27	0.095
896.70	0.100
897.13	0.095
897.56	0.092
897.99	0.088
898.42	0.094
898.85	0.097
899.27	0.093
899.70	0.089
900.13	0.090
900.56	0.096
900.99	0.093
901.42	0.101
901.85	0.099
902.28	0.096
902.70	0.090
903.13	0.093
903.56	0.091
903.99	0.093
904.42	0.091
904.85	0.093
905.27	0.095
905.70	0.095
906.13	0.095
906.56	0.097
906.99	0.097
907.42	0.096
907.84	0.096
908.27	0.092
908.70	0.097
909.13	0.093
909.56	0.101
909.98	0.089
910.41	0.093
910.84	0.095
911.27	0.101
911.70	0.098
912.12	0.095
912.55	0.094
912.98	0.093
913.41	0.092
913.84	0.095
914.26	0.096
914.69	0.095
915.12	0.094
915.55	0.094
915.97	0.094
916.40	0.096
916.83	0.096
917.26	0.098
917.68	0.094
918.11	0.098
918.54	0.095
918.97	0.094
919.39	0.097
919.82	0.094
920.25	0.096
920.67	0.095
921.10	0.096
921.53	0.096
921.96	0.096
922.38	0.099
922.81	0.099
923.24	0.101
923.66	0.100
924.09	0.104
924.52	0.101
924.94	0.102
925.37	0.099
925.80	0.100
926.22	0.105
926.65	0.101
927.08	0.103
927.50	0.110
927.93	0.109
928.36	0.105
928.78	0.109
929.21	0.108
929.64	0.107
930.06	0.106
930.49	0.107
930.92	0.109
931.34	0.112
931.77	0.115
932.20	0.110
932.62	0.109
933.05	0.113
933.47	0.119
933.90	0.115
934.33	0.122
934.75	0.125
935.18	0.120
935.61	0.124
936.03	0.132
936.46	0.127
936.88	0.128
937.31	0.135
937.73	0.132
938.16	0.130
938.59	0.128
939.01	0.130
939.44	0.140
939.86	0.140
940.29	0.139
940.71	0.144
941.14	0.146
941.57	0.145
941.99	0.150
942.42	0.151
942.84	0.151
943.27	0.154
943.69	0.153
944.12	0.162
944.54	0.156
944.97	0.172
945.39	0.164
945.82	0.171
946.24	0.172
946.67	0.158
947.09	0.174
947.52	0.183
947.94	0.175
948.37	0.179
948.79	0.187
949.22	0.180
949.64	0.187
950.07	0.181
950.49	0.189
950.92	0.199
951.34	0.196
951.77	0.198
952.19	0.199
952.62	0.202
953.04	0.204
953.47	0.211
953.89	0.207
954.32	0.214
954.74	0.221
955.17	0.221
955.59	0.224
956.01	0.233
956.44	0.229
956.86	0.234
957.29	0.231
957.71	0.235
958.14	0.237
958.56	0.245
958.98	0.240
959.41	0.242
959.83	0.246
960.26	0.246
960.68	0.249
961.10	0.256
961.53	0.253
961.95	0.249
962.38	0.259
962.80	0.256
963.22	0.253
963.65	0.259
964.07	0.257
964.50	0.261
964.92	0.258
965.34	0.255
965.77	0.255
966.19	0.262
966.61	0.261
967.04	0.257
967.46	0.269
967.88	0.264
968.31	0.257
968.73	0.273
969.15	0.270
969.58	0.263
970.00	0.264
970.42	0.268
970.85	0.258
971.27	0.265
971.69	0.269
972.12	0.268
972.54	0.264
972.96	0.270
973.39	0.268
973.81	0.259
974.23	0.266
974.65	0.273
975.08	0.264
975.50	0.262
975.92	0.264
976.35	0.263
976.77	0.268
977.19	0.262
977.61	0.266
978.04	0.275
978.46	0.273
978.88	0.267
979.30	0.272
979.73	0.265
980.15	0.270
980.57	0.272
980.99	0.270
981.42	0.272
981.84	0.267
982.26	0.277
982.68	0.271
983.11	0.269
983.53	0.269
983.95	0.263
984.37	0.267
984.79	0.266
985.22	0.263
985.64	0.272
986.06	0.263
986.48	0.260
986.90	0.266
987.33	0.267
987.75	0.263
988.17	0.262
988.59	0.266
989.01	0.261
989.43	0.254
989.86	0.256
990.28	0.258
990.70	0.262
991.12	0.264
991.54	0.263
991.96	0.258
992.39	0.255
992.81	0.249
993.23	0.252
993.65	0.262
994.07	0.246
994.49	0.242
994.91	0.244
995.34	0.251
995.76	0.250
996.18	0.252
996.60	0.253
997.02	0.242
997.44	0.251
997.86	0.250
998.28	0.248
998.70	0.258
999.12	0.248
999.55	0.246
999.97	0.248
1000.39	0.248
1000.81	0.241
1001.23	0.247
1001.65	0.238
1002.07	0.233
1002.49	0.234
1002.91	0.239
1003.33	0.231
1003.75	0.239
1004.17	0.228
1004.59	0.229
1005.01	0.233
1005.43	0.233
1005.85	0.231
1006.28	0.232
1006.70	0.222
1007.12	0.226
1007.54	0.232
1007.96	0.238
1008.38	0.224
1008.80	0.217
1009.22	0.231
1009.64	0.228
1010.06	0.223
1010.48	0.221
1010.90	0.225
1011.32	0.224
1011.74	0.228
1012.16	0.218
1012.58	0.216
1013.00	0.210
1013.42	0.201
1013.84	0.206
1014.26	0.204
1014.67	0.213
1015.09	0.210
1015.51	0.200
1015.93	0.200
1016.35	0.208
1016.77	0.205
1017.19	0.202
1017.61	0.213
1018.03	0.198
1018.45	0.206
1018.87	0.195
1019.29	0.197
1019.71	0.195
1020.13	0.199
1020.55	0.200
1020.97	0.202
1021.38	0.197
1021.80	0.208
1022.22	0.197
1022.64	0.186
1023.06	0.180
1023.48	0.188
1023.90	0.188
1024.32	0.190
1024.74	0.185
1025.15	0.181
1025.57	0.181
1025.99	0.171
1026.41	0.176
1026.83	0.177
1027.25	0.184
1027.67	0.169
1028.08	0.176
1028.50	0.191
1028.92	0.181
1029.34	0.163
1029.76	0.183
1030.18	0.174
1030.60	0.175
1031.01	0.173
1031.43	0.176
1031.85	0.164
1032.27	0.168
1032.69	0.163
1033.10	0.177
1033.52	0.175
1033.94	0.156
1034.36	0.165
1034.78	0.164
1035.19	0.151
1035.61	0.157
1036.03	0.170
1036.45	0.150
1036.87	0.139
1037.28	0.159
1037.70	0.149
1038.12	0.156
1038.54	0.165
1038.95	0.156
1039.37	0.158
1039.79	0.154
1040.21	0.135
1040.62	0.163
1041.04	0.151
1041.46	0.134
1041.88	0.138
1042.29	0.142
1042.71	0.164
1043.13	0.144
1043.55	0.156
1043.96	0.143
1044.38	0.140
1044.80	0.131
1045.21	0.142
1045.63	0.136
1046.05	0.139
1046.47	0.141
1046.88	0.148
1047.30	0.147
1047.72	0.131
1048.13	0.141
1048.55	0.142
1048.97	0.135
1049.38	0.123
1049.80	0.141
1050.22	0.141
1050.63	0.143
1051.05	0.147
1051.47	0.138
1051.88	0.139
1052.30	0.160
1052.72	0.117
1053.13	0.155
1053.55	0.111
1053.97	0.112
1054.38	0.162
1054.80	0.134
1055.21	0.160
1055.63	0.141
1056.05	0.148
1056.46	0.106
1056.88	0.150
1057.29	0.149
1057.71	0.148
1058.13	0.162
1058.54	0.141
1058.96	0.156
1059.37	0.151
1059.79	0.151
1060.21	0.147
1060.62	0.126
1061.04	0.177
1061.45	0.175
1061.87	0.119
1062.28	0.166
1062.70	0.166
1063.12	0.131
1063.53	0.167
1063.95	0.174
1064.36	0.190
1064.78	0.234
1065.19	0.101
1065.61	0.131
1066.02	0.156
1066.44	0.163
1066.85	0.163
1067.27	0.148
1067.68	0.151
1068.10	0.263
1068.51	0.125
1068.93	0.127
1069.35	0.193
1069.76	0.188
1070.17	0.247
1070.59	0.253
1071.00	0.271
1071.42	0.225
1071.83	0.238
1072.25	0.215
1072.66	0.326
1073.08	0.117
1073.49	0.194
1073.91	0.241
1074.32	0.179
1074.74	0.335
1075.15	0.240
1075.57	0.399
1075.98	0.179
1076.40	0.292
1076.81	0.097
1077.22	0.135
1077.64	0.415
1078.05	0.300
1078.47	0.246
1078.88	0.253
1079.30	0.191
1079.71	0.364
1080.12	0.609
1080.54	0.139
1080.95	0.163
1081.37	0.263
1081.78	0.221
1082.19	0.254
1082.61	0.154
1083.02	0.655
1083.44	0.290
1083.85	0.157
1084.26	0.325
1084.68	0.196
1085.09	0.224
1085.50	0.430
1085.92	0.240
1086.33	0.743
1086.74	0.428
1087.16	0.342
1087.57	1.186
1087.98	0.258
1088.40	0.156
1088.81	0.394
1089.22	0.357
1089.64	0.695
1090.05	0.403
1090.46	0.074
1090.88	0.828
1091.29	0.308
1091.70	0.413
1092.12	0.717
1092.53	0.244
1092.94	-0.000
1093.36	1.188
1093.77	0.507
1094.18	0.822
1094.59	0.138
1095.01	0.663
1095.42	0.438
1095.83	0.288
1096.25	0.446
1096.66	0.148
1097.07	0.062
1097.48	0.210
1097.90	-0.000
1098.31	0.368
1098.72	0.992
1099.13	0.304
>>>>>End Processed Spectral Data<<<<<
