SpectraSuite Data File
++++++++++++++++++++++++++++++++++++
Date: Tue Jul 11 14:51:29 CEST 2017
User: IPCE
Dark Spectrum Present: Yes
Reference Spectrum Present: Yes
Number of Sampled Component Spectra: 1
Spectrometers: HR+C0708
Integration Time (usec): 1000 (HR+C0708)
Spectra Averaged: 10 (HR+C0708)
Boxcar Smoothing: 0 (HR+C0708)
Correct for Electrical Dark: No (HR+C0708)
Strobe/Lamp Enabled: No (HR+C0708)
Correct for Detector Non-linearity: No (HR+C0708)
Correct for Stray Light: No (HR+C0708)
Number of Pixels in Processed Spectrum: 2048
>>>>>Begin Processed Spectral Data<<<<<
188.76	-0.000
189.23	0.075
189.70	0.731
190.17	0.878
190.64	0.182
191.12	0.665
191.59	0.553
192.06	0.209
192.53	0.489
193.01	2.143
193.48	0.908
193.95	0.169
194.42	0.371
194.90	0.480
195.37	-0.000
195.84	0.611
196.31	0.428
196.78	-0.000
197.26	0.293
197.73	0.485
198.20	-0.046
198.67	-0.000
199.14	-0.000
199.62	-0.000
200.09	0.320
200.56	0.327
201.03	0.285
201.50	0.395
201.97	0.382
202.45	0.320
202.92	0.340
203.39	0.525
203.86	0.484
204.33	0.370
204.80	0.429
205.28	0.497
205.75	0.480
206.22	0.307
206.69	0.249
207.16	0.349
207.63	0.367
208.11	0.503
208.58	0.442
209.05	0.571
209.52	0.546
209.99	0.492
210.46	0.635
210.93	0.469
211.41	0.596
211.88	0.316
212.35	0.423
212.82	0.348
213.29	0.761
213.76	0.413
214.23	0.250
214.70	0.679
215.18	0.563
215.65	0.459
216.12	0.545
216.59	0.439
217.06	0.614
217.53	0.385
218.00	0.233
218.47	0.500
218.94	0.405
219.41	0.313
219.89	0.309
220.36	0.417
220.83	0.554
221.30	0.361
221.77	0.424
222.24	0.388
222.71	0.409
223.18	0.434
223.65	0.721
224.12	0.562
224.59	0.447
225.06	0.640
225.54	0.617
226.01	0.675
226.48	0.746
226.95	0.842
227.42	0.902
227.89	0.808
228.36	0.903
228.83	0.852
229.30	1.097
229.77	0.992
230.24	1.495
230.71	1.171
231.18	1.217
231.65	1.242
232.12	1.261
232.59	1.440
233.06	1.426
233.53	1.529
234.00	1.432
234.47	1.592
234.94	1.563
235.41	1.665
235.88	1.878
236.35	1.703
236.82	1.782
237.29	1.941
237.76	1.854
238.23	2.031
238.70	1.907
239.17	2.176
239.64	2.282
240.11	2.128
240.58	2.091
241.05	2.152
241.52	2.162
241.99	2.121
242.46	2.203
242.93	2.203
243.40	2.209
243.87	2.271
244.34	2.177
244.81	2.187
245.28	2.152
245.75	2.295
246.22	2.109
246.69	2.149
247.16	2.428
247.63	2.388
248.10	2.371
248.57	2.270
249.04	2.268
249.51	2.237
249.98	2.301
250.45	2.190
250.92	2.128
251.39	2.089
251.85	1.988
252.32	1.854
252.79	1.748
253.26	1.681
253.73	1.602
254.20	1.488
254.67	1.412
255.14	1.316
255.61	1.266
256.08	1.201
256.55	1.168
257.02	1.115
257.49	1.073
257.95	1.039
258.42	1.004
258.89	0.982
259.36	0.950
259.83	0.921
260.30	0.898
260.77	0.874
261.24	0.855
261.71	0.846
262.17	0.820
262.64	0.811
263.11	0.799
263.58	0.780
264.05	0.769
264.52	0.753
264.99	0.745
265.46	0.735
265.92	0.726
266.39	0.708
266.86	0.705
267.33	0.695
267.80	0.686
268.27	0.679
268.74	0.670
269.20	0.657
269.67	0.647
270.14	0.643
270.61	0.638
271.08	0.632
271.55	0.622
272.01	0.615
272.48	0.608
272.95	0.607
273.42	0.601
273.89	0.591
274.36	0.591
274.82	0.584
275.29	0.578
275.76	0.576
276.23	0.574
276.70	0.569
277.16	0.564
277.63	0.561
278.10	0.559
278.57	0.553
279.04	0.545
279.50	0.547
279.97	0.544
280.44	0.543
280.91	0.541
281.38	0.537
281.84	0.535
282.31	0.536
282.78	0.533
283.25	0.535
283.72	0.535
284.18	0.533
284.65	0.533
285.12	0.526
285.59	0.529
286.05	0.527
286.52	0.525
286.99	0.526
287.46	0.527
287.92	0.528
288.39	0.524
288.86	0.523
289.33	0.516
289.79	0.523
290.26	0.521
290.73	0.517
291.20	0.510
291.66	0.511
292.13	0.506
292.60	0.507
293.07	0.503
293.53	0.499
294.00	0.495
294.47	0.492
294.93	0.491
295.40	0.482
295.87	0.475
296.34	0.470
296.80	0.466
297.27	0.456
297.74	0.449
298.20	0.442
298.67	0.437
299.14	0.428
299.60	0.421
300.07	0.418
300.54	0.411
301.01	0.407
301.47	0.395
301.94	0.391
302.41	0.384
302.87	0.377
303.34	0.374
303.81	0.364
304.27	0.360
304.74	0.354
305.21	0.351
305.67	0.345
306.14	0.342
306.61	0.335
307.07	0.329
307.54	0.325
308.01	0.320
308.47	0.319
308.94	0.312
309.40	0.309
309.87	0.306
310.34	0.305
310.80	0.301
311.27	0.296
311.74	0.295
312.20	0.294
312.67	0.290
313.13	0.286
313.60	0.289
314.07	0.287
314.53	0.283
315.00	0.280
315.47	0.278
315.93	0.278
316.40	0.276
316.86	0.274
317.33	0.276
317.80	0.271
318.26	0.271
318.73	0.268
319.19	0.267
319.66	0.269
320.13	0.264
320.59	0.265
321.06	0.264
321.52	0.259
321.99	0.262
322.45	0.260
322.92	0.257
323.39	0.257
323.85	0.255
324.32	0.254
324.78	0.253
325.25	0.250
325.71	0.249
326.18	0.252
326.64	0.248
327.11	0.246
327.58	0.247
328.04	0.245
328.51	0.241
328.97	0.242
329.44	0.242
329.90	0.240
330.37	0.235
330.83	0.237
331.30	0.236
331.76	0.234
332.23	0.234
332.69	0.231
333.16	0.230
333.62	0.230
334.09	0.227
334.56	0.226
335.02	0.223
335.49	0.221
335.95	0.220
336.42	0.218
336.88	0.215
337.35	0.216
337.81	0.215
338.28	0.212
338.74	0.213
339.20	0.213
339.67	0.213
340.13	0.209
340.60	0.207
341.06	0.205
341.53	0.204
341.99	0.205
342.46	0.203
342.92	0.204
343.39	0.203
343.85	0.198
344.32	0.200
344.78	0.201
345.25	0.199
345.71	0.198
346.17	0.199
346.64	0.202
347.10	0.197
347.57	0.196
348.03	0.194
348.50	0.190
348.96	0.192
349.43	0.194
349.89	0.195
350.35	0.187
350.82	0.191
351.28	0.188
351.75	0.191
352.21	0.187
352.67	0.189
353.14	0.187
353.60	0.188
354.07	0.180
354.53	0.178
355.00	0.182
355.46	0.183
355.92	0.177
356.39	0.179
356.85	0.177
357.31	0.181
357.78	0.175
358.24	0.172
358.71	0.176
359.17	0.174
359.63	0.171
360.10	0.175
360.56	0.167
361.03	0.168
361.49	0.166
361.95	0.165
362.42	0.168
362.88	0.166
363.34	0.167
363.81	0.165
364.27	0.164
364.73	0.161
365.20	0.166
365.66	0.163
366.12	0.162
366.59	0.160
367.05	0.161
367.51	0.159
367.98	0.159
368.44	0.159
368.90	0.159
369.37	0.159
369.83	0.157
370.29	0.158
370.76	0.157
371.22	0.155
371.68	0.156
372.15	0.154
372.61	0.153
373.07	0.156
373.54	0.155
374.00	0.155
374.46	0.154
374.92	0.155
375.39	0.153
375.85	0.152
376.31	0.152
376.78	0.155
377.24	0.154
377.70	0.154
378.16	0.152
378.63	0.155
379.09	0.151
379.55	0.150
380.01	0.151
380.48	0.150
380.94	0.151
381.40	0.152
381.87	0.152
382.33	0.149
382.79	0.150
383.25	0.150
383.72	0.149
384.18	0.149
384.64	0.146
385.10	0.149
385.56	0.147
386.03	0.150
386.49	0.148
386.95	0.145
387.41	0.148
387.88	0.145
388.34	0.148
388.80	0.147
389.26	0.145
389.72	0.147
390.19	0.150
390.65	0.145
391.11	0.146
391.57	0.145
392.04	0.144
392.50	0.146
392.96	0.146
393.42	0.146
393.88	0.146
394.34	0.145
394.81	0.141
395.27	0.143
395.73	0.145
396.19	0.142
396.65	0.144
397.12	0.141
397.58	0.143
398.04	0.145
398.50	0.144
398.96	0.144
399.42	0.143
399.89	0.143
400.35	0.143
400.81	0.141
401.27	0.141
401.73	0.142
402.19	0.140
402.65	0.140
403.12	0.137
403.58	0.138
404.04	0.138
404.50	0.137
404.96	0.136
405.42	0.138
405.88	0.139
406.34	0.138
406.81	0.140
407.27	0.133
407.73	0.138
408.19	0.134
408.65	0.136
409.11	0.137
409.57	0.134
410.03	0.136
410.49	0.132
410.96	0.131
411.42	0.131
411.88	0.134
412.34	0.131
412.80	0.134
413.26	0.133
413.72	0.133
414.18	0.130
414.64	0.129
415.10	0.133
415.56	0.129
416.02	0.129
416.48	0.131
416.95	0.131
417.41	0.131
417.87	0.131
418.33	0.129
418.79	0.128
419.25	0.130
419.71	0.131
420.17	0.130
420.63	0.129
421.09	0.128
421.55	0.128
422.01	0.129
422.47	0.131
422.93	0.131
423.39	0.133
423.85	0.131
424.31	0.130
424.77	0.125
425.23	0.128
425.69	0.126
426.15	0.128
426.61	0.127
427.07	0.129
427.53	0.127
427.99	0.128
428.45	0.124
428.91	0.125
429.37	0.127
429.83	0.125
430.29	0.129
430.75	0.131
431.21	0.127
431.67	0.126
432.13	0.126
432.59	0.126
433.05	0.125
433.51	0.126
433.97	0.127
434.43	0.127
434.89	0.124
435.35	0.119
435.81	0.122
436.27	0.121
436.73	0.126
437.19	0.125
437.65	0.126
438.11	0.124
438.57	0.121
439.03	0.121
439.48	0.121
439.94	0.122
440.40	0.119
440.86	0.119
441.32	0.118
441.78	0.120
442.24	0.122
442.70	0.120
443.16	0.118
443.62	0.123
444.08	0.118
444.54	0.120
444.99	0.117
445.45	0.120
445.91	0.117
446.37	0.117
446.83	0.117
447.29	0.119
447.75	0.119
448.21	0.117
448.67	0.116
449.12	0.119
449.58	0.115
450.04	0.116
450.50	0.116
450.96	0.120
451.42	0.114
451.88	0.116
452.34	0.121
452.79	0.117
453.25	0.120
453.71	0.114
454.17	0.116
454.63	0.116
455.09	0.116
455.55	0.117
456.00	0.116
456.46	0.115
456.92	0.112
457.38	0.116
457.84	0.112
458.30	0.116
458.75	0.116
459.21	0.112
459.67	0.116
460.13	0.114
460.59	0.115
461.04	0.113
461.50	0.114
461.96	0.113
462.42	0.118
462.88	0.114
463.33	0.115
463.79	0.115
464.25	0.114
464.71	0.115
465.17	0.115
465.62	0.115
466.08	0.116
466.54	0.115
467.00	0.116
467.46	0.114
467.91	0.113
468.37	0.117
468.83	0.114
469.29	0.113
469.74	0.114
470.20	0.116
470.66	0.118
471.12	0.115
471.57	0.114
472.03	0.115
472.49	0.116
472.95	0.115
473.40	0.115
473.86	0.117
474.32	0.117
474.78	0.113
475.23	0.116
475.69	0.112
476.15	0.115
476.60	0.117
477.06	0.117
477.52	0.115
477.98	0.115
478.43	0.115
478.89	0.114
479.35	0.114
479.80	0.115
480.26	0.113
480.72	0.115
481.18	0.117
481.63	0.115
482.09	0.112
482.55	0.116
483.00	0.114
483.46	0.111
483.92	0.112
484.37	0.114
484.83	0.113
485.29	0.115
485.74	0.113
486.20	0.113
486.66	0.115
487.11	0.113
487.57	0.113
488.03	0.116
488.48	0.113
488.94	0.114
489.40	0.113
489.85	0.114
490.31	0.112
490.77	0.111
491.22	0.113
491.68	0.114
492.13	0.114
492.59	0.114
493.05	0.112
493.50	0.112
493.96	0.113
494.42	0.113
494.87	0.116
495.33	0.112
495.78	0.112
496.24	0.114
496.70	0.115
497.15	0.111
497.61	0.113
498.06	0.114
498.52	0.112
498.98	0.114
499.43	0.112
499.89	0.111
500.34	0.113
500.80	0.112
501.25	0.112
501.71	0.111
502.17	0.114
502.62	0.114
503.08	0.113
503.53	0.114
503.99	0.112
504.44	0.111
504.90	0.110
505.36	0.109
505.81	0.112
506.27	0.114
506.72	0.114
507.18	0.112
507.63	0.109
508.09	0.113
508.54	0.112
509.00	0.109
509.45	0.110
509.91	0.110
510.36	0.112
510.82	0.110
511.27	0.112
511.73	0.110
512.19	0.111
512.64	0.112
513.10	0.112
513.55	0.111
514.01	0.110
514.46	0.111
514.92	0.111
515.37	0.113
515.83	0.112
516.28	0.112
516.73	0.111
517.19	0.110
517.64	0.108
518.10	0.110
518.55	0.110
519.01	0.110
519.46	0.112
519.92	0.109
520.37	0.108
520.83	0.113
521.28	0.108
521.74	0.109
522.19	0.111
522.65	0.109
523.10	0.111
523.55	0.109
524.01	0.109
524.46	0.112
524.92	0.109
525.37	0.108
525.83	0.109
526.28	0.111
526.73	0.110
527.19	0.109
527.64	0.109
528.10	0.113
528.55	0.110
529.01	0.112
529.46	0.109
529.91	0.110
530.37	0.111
530.82	0.108
531.28	0.109
531.73	0.111
532.18	0.109
532.64	0.109
533.09	0.109
533.54	0.111
534.00	0.112
534.45	0.110
534.91	0.111
535.36	0.111
535.81	0.112
536.27	0.113
536.72	0.113
537.17	0.111
537.63	0.114
538.08	0.112
538.54	0.114
538.99	0.114
539.44	0.113
539.90	0.111
540.35	0.112
540.80	0.113
541.26	0.114
541.71	0.114
542.16	0.114
542.62	0.115
543.07	0.113
543.52	0.112
543.98	0.113
544.43	0.113
544.88	0.113
545.34	0.116
545.79	0.117
546.24	0.115
546.69	0.117
547.15	0.116
547.60	0.119
548.05	0.116
548.51	0.119
548.96	0.117
549.41	0.118
549.86	0.117
550.32	0.119
550.77	0.118
551.22	0.119
551.68	0.119
552.13	0.119
552.58	0.119
553.03	0.120
553.49	0.119
553.94	0.121
554.39	0.120
554.84	0.122
555.30	0.122
555.75	0.123
556.20	0.122
556.65	0.123
557.11	0.124
557.56	0.123
558.01	0.122
558.46	0.124
558.92	0.125
559.37	0.127
559.82	0.125
560.27	0.129
560.72	0.127
561.18	0.127
561.63	0.127
562.08	0.127
562.53	0.128
562.99	0.132
563.44	0.131
563.89	0.129
564.34	0.128
564.79	0.130
565.25	0.133
565.70	0.134
566.15	0.133
566.60	0.133
567.05	0.135
567.50	0.135
567.96	0.136
568.41	0.135
568.86	0.136
569.31	0.139
569.76	0.137
570.21	0.137
570.67	0.140
571.12	0.139
571.57	0.140
572.02	0.141
572.47	0.140
572.92	0.142
573.37	0.144
573.83	0.144
574.28	0.143
574.73	0.144
575.18	0.145
575.63	0.146
576.08	0.144
576.53	0.147
576.98	0.147
577.44	0.150
577.89	0.149
578.34	0.153
578.79	0.152
579.24	0.154
579.69	0.154
580.14	0.155
580.59	0.155
581.04	0.154
581.49	0.156
581.95	0.158
582.40	0.159
582.85	0.158
583.30	0.159
583.75	0.162
584.20	0.162
584.65	0.165
585.10	0.165
585.55	0.167
586.00	0.167
586.45	0.168
586.90	0.170
587.35	0.170
587.80	0.171
588.25	0.174
588.71	0.177
589.16	0.176
589.61	0.177
590.06	0.180
590.51	0.181
590.96	0.184
591.41	0.185
591.86	0.184
592.31	0.188
592.76	0.186
593.21	0.190
593.66	0.193
594.11	0.195
594.56	0.193
595.01	0.196
595.46	0.200
595.91	0.200
596.36	0.199
596.81	0.200
597.26	0.204
597.71	0.205
598.16	0.206
598.61	0.208
599.06	0.209
599.51	0.208
599.96	0.214
600.41	0.216
600.86	0.215
601.31	0.216
601.76	0.222
602.21	0.221
602.65	0.223
603.10	0.224
603.55	0.224
604.00	0.227
604.45	0.230
604.90	0.230
605.35	0.230
605.80	0.233
606.25	0.234
606.70	0.236
607.15	0.236
607.60	0.236
608.05	0.239
608.50	0.239
608.95	0.242
609.39	0.241
609.84	0.245
610.29	0.246
610.74	0.243
611.19	0.246
611.64	0.250
612.09	0.249
612.54	0.249
612.99	0.247
613.44	0.250
613.88	0.251
614.33	0.251
614.78	0.252
615.23	0.256
615.68	0.253
616.13	0.254
616.58	0.255
617.03	0.253
617.47	0.253
617.92	0.257
618.37	0.256
618.82	0.257
619.27	0.258
619.72	0.260
620.17	0.260
620.61	0.261
621.06	0.260
621.51	0.262
621.96	0.261
622.41	0.263
622.86	0.265
623.30	0.264
623.75	0.261
624.20	0.264
624.65	0.265
625.10	0.266
625.54	0.266
625.99	0.270
626.44	0.270
626.89	0.269
627.34	0.270
627.78	0.273
628.23	0.274
628.68	0.274
629.13	0.275
629.58	0.276
630.02	0.277
630.47	0.278
630.92	0.279
631.37	0.279
631.81	0.281
632.26	0.282
632.71	0.287
633.16	0.286
633.61	0.288
634.05	0.290
634.50	0.292
634.95	0.293
635.40	0.298
635.84	0.297
636.29	0.296
636.74	0.298
637.18	0.304
637.63	0.303
638.08	0.305
638.53	0.307
638.97	0.309
639.42	0.312
639.87	0.314
640.32	0.316
640.76	0.318
641.21	0.320
641.66	0.323
642.10	0.326
642.55	0.328
643.00	0.329
643.44	0.333
643.89	0.334
644.34	0.338
644.79	0.342
645.23	0.343
645.68	0.347
646.13	0.347
646.57	0.350
647.02	0.353
647.47	0.354
647.91	0.358
648.36	0.361
648.81	0.362
649.25	0.364
649.70	0.367
650.15	0.367
650.59	0.373
651.04	0.373
651.48	0.375
651.93	0.377
652.38	0.379
652.82	0.382
653.27	0.385
653.72	0.387
654.16	0.390
654.61	0.390
655.06	0.390
655.50	0.394
655.95	0.393
656.39	0.399
656.84	0.401
657.29	0.400
657.73	0.400
658.18	0.404
658.62	0.404
659.07	0.406
659.52	0.406
659.96	0.406
660.41	0.408
660.85	0.408
661.30	0.411
661.74	0.408
662.19	0.410
662.64	0.409
663.08	0.413
663.53	0.414
663.97	0.411
664.42	0.413
664.86	0.410
665.31	0.415
665.75	0.412
666.20	0.410
666.65	0.412
667.09	0.407
667.54	0.406
667.98	0.402
668.43	0.404
668.87	0.399
669.32	0.397
669.76	0.393
670.21	0.393
670.65	0.390
671.10	0.386
671.54	0.384
671.99	0.379
672.43	0.375
672.88	0.370
673.32	0.367
673.77	0.356
674.21	0.357
674.66	0.349
675.10	0.345
675.55	0.341
675.99	0.332
676.44	0.329
676.88	0.322
677.33	0.319
677.77	0.311
678.22	0.301
678.66	0.299
679.11	0.292
679.55	0.286
679.99	0.278
680.44	0.273
680.88	0.268
681.33	0.259
681.77	0.253
682.22	0.247
682.66	0.241
683.11	0.236
683.55	0.230
683.99	0.223
684.44	0.218
684.88	0.215
685.33	0.206
685.77	0.200
686.21	0.196
686.66	0.191
687.10	0.187
687.55	0.182
687.99	0.176
688.44	0.173
688.88	0.169
689.32	0.162
689.77	0.160
690.21	0.157
690.65	0.153
691.10	0.149
691.54	0.143
691.99	0.140
692.43	0.140
692.87	0.135
693.32	0.133
693.76	0.129
694.20	0.128
694.65	0.125
695.09	0.123
695.53	0.120
695.98	0.119
696.42	0.117
696.86	0.113
697.31	0.110
697.75	0.111
698.19	0.108
698.64	0.106
699.08	0.108
699.52	0.106
699.97	0.102
700.41	0.103
700.85	0.100
701.30	0.099
701.74	0.097
702.18	0.097
702.63	0.094
703.07	0.094
703.51	0.096
703.96	0.093
704.40	0.091
704.84	0.089
705.28	0.090
705.73	0.090
706.17	0.088
706.61	0.088
707.06	0.090
707.50	0.085
707.94	0.086
708.38	0.087
708.83	0.088
709.27	0.086
709.71	0.086
710.15	0.084
710.60	0.084
711.04	0.086
711.48	0.083
711.92	0.085
712.37	0.083
712.81	0.081
713.25	0.081
713.69	0.083
714.13	0.080
714.58	0.078
715.02	0.081
715.46	0.079
715.90	0.079
716.35	0.082
716.79	0.079
717.23	0.081
717.67	0.083
718.11	0.080
718.56	0.081
719.00	0.079
719.44	0.081
719.88	0.080
720.32	0.080
720.76	0.080
721.21	0.078
721.65	0.080
722.09	0.079
722.53	0.079
722.97	0.080
723.41	0.078
723.86	0.080
724.30	0.081
724.74	0.078
725.18	0.080
725.62	0.083
726.06	0.081
726.50	0.081
726.95	0.081
727.39	0.078
727.83	0.078
728.27	0.080
728.71	0.079
729.15	0.082
729.59	0.080
730.03	0.080
730.48	0.084
730.92	0.076
731.36	0.081
731.80	0.078
732.24	0.082
732.68	0.083
733.12	0.081
733.56	0.081
734.00	0.081
734.44	0.082
734.89	0.083
735.33	0.082
735.77	0.084
736.21	0.081
736.65	0.080
737.09	0.081
737.53	0.083
737.97	0.081
738.41	0.083
738.85	0.084
739.29	0.083
739.73	0.080
740.17	0.083
740.61	0.080
741.05	0.081
741.49	0.082
741.93	0.080
742.37	0.083
742.81	0.083
743.26	0.083
743.70	0.083
744.14	0.085
744.58	0.083
745.02	0.081
745.46	0.083
745.90	0.081
746.34	0.083
746.78	0.081
747.22	0.082
747.66	0.080
748.10	0.082
748.54	0.081
748.98	0.081
749.42	0.083
749.86	0.084
750.29	0.083
750.73	0.081
751.17	0.081
751.61	0.079
752.05	0.083
752.49	0.080
752.93	0.080
753.37	0.082
753.81	0.081
754.25	0.081
754.69	0.078
755.13	0.081
755.57	0.081
756.01	0.080
756.45	0.080
756.89	0.084
757.33	0.082
757.77	0.079
758.21	0.079
758.64	0.081
759.08	0.078
759.52	0.081
759.96	0.078
760.40	0.077
760.84	0.079
761.28	0.081
761.72	0.078
762.16	0.080
762.60	0.080
763.03	0.079
763.47	0.079
763.91	0.081
764.35	0.080
764.79	0.081
765.23	0.079
765.67	0.082
766.11	0.079
766.54	0.077
766.98	0.079
767.42	0.077
767.86	0.078
768.30	0.078
768.74	0.079
769.17	0.081
769.61	0.082
770.05	0.080
770.49	0.081
770.93	0.083
771.37	0.080
771.80	0.078
772.24	0.080
772.68	0.081
773.12	0.079
773.56	0.083
774.00	0.079
774.43	0.079
774.87	0.078
775.31	0.077
775.75	0.082
776.19	0.080
776.62	0.082
777.06	0.077
777.50	0.079
777.94	0.083
778.37	0.077
778.81	0.076
779.25	0.082
779.69	0.081
780.13	0.077
780.56	0.080
781.00	0.078
781.44	0.077
781.88	0.078
782.31	0.078
782.75	0.080
783.19	0.077
783.63	0.080
784.06	0.078
784.50	0.077
784.94	0.079
785.37	0.079
785.81	0.079
786.25	0.080
786.69	0.079
787.12	0.080
787.56	0.079
788.00	0.076
788.43	0.079
788.87	0.078
789.31	0.080
789.75	0.080
790.18	0.078
790.62	0.079
791.06	0.076
791.49	0.076
791.93	0.078
792.37	0.077
792.80	0.075
793.24	0.077
793.68	0.079
794.11	0.077
794.55	0.076
794.99	0.080
795.42	0.079
795.86	0.080
796.30	0.080
796.73	0.075
797.17	0.079
797.61	0.077
798.04	0.078
798.48	0.079
798.91	0.078
799.35	0.077
799.79	0.080
800.22	0.075
800.66	0.076
801.10	0.076
801.53	0.080
801.97	0.079
802.40	0.077
802.84	0.082
803.28	0.075
803.71	0.076
804.15	0.077
804.58	0.079
805.02	0.078
805.46	0.074
805.89	0.081
806.33	0.076
806.76	0.078
807.20	0.070
807.63	0.077
808.07	0.077
808.51	0.073
808.94	0.077
809.38	0.078
809.81	0.072
810.25	0.079
810.68	0.078
811.12	0.077
811.55	0.076
811.99	0.073
812.42	0.074
812.86	0.076
813.29	0.078
813.73	0.077
814.17	0.076
814.60	0.079
815.04	0.077
815.47	0.075
815.91	0.077
816.34	0.076
816.78	0.075
817.21	0.077
817.65	0.077
818.08	0.079
818.52	0.082
818.95	0.078
819.39	0.077
819.82	0.077
820.25	0.075
820.69	0.078
821.12	0.076
821.56	0.073
821.99	0.075
822.43	0.078
822.86	0.071
823.30	0.073
823.73	0.078
824.17	0.073
824.60	0.077
825.04	0.076
825.47	0.077
825.90	0.073
826.34	0.072
826.77	0.080
827.21	0.080
827.64	0.075
828.08	0.080
828.51	0.079
828.94	0.077
829.38	0.079
829.81	0.081
830.25	0.082
830.68	0.080
831.11	0.083
831.55	0.086
831.98	0.081
832.42	0.081
832.85	0.086
833.28	0.085
833.72	0.084
834.15	0.084
834.58	0.084
835.02	0.084
835.45	0.079
835.88	0.080
836.32	0.085
836.75	0.081
837.19	0.085
837.62	0.084
838.05	0.086
838.49	0.081
838.92	0.082
839.35	0.087
839.79	0.083
840.22	0.082
840.65	0.083
841.09	0.083
841.52	0.079
841.95	0.084
842.39	0.082
842.82	0.083
843.25	0.082
843.68	0.090
844.12	0.087
844.55	0.082
844.98	0.086
845.42	0.088
845.85	0.083
846.28	0.082
846.71	0.087
847.15	0.095
847.58	0.085
848.01	0.077
848.45	0.086
848.88	0.082
849.31	0.083
849.74	0.086
850.18	0.090
850.61	0.084
851.04	0.084
851.47	0.083
851.91	0.090
852.34	0.088
852.77	0.087
853.20	0.090
853.64	0.080
854.07	0.078
854.50	0.083
854.93	0.090
855.36	0.081
855.80	0.086
856.23	0.088
856.66	0.086
857.09	0.087
857.52	0.090
857.96	0.093
858.39	0.085
858.82	0.080
859.25	0.087
859.68	0.086
860.12	0.081
860.55	0.082
860.98	0.095
861.41	0.084
861.84	0.090
862.27	0.084
862.71	0.093
863.14	0.084
863.57	0.083
864.00	0.092
864.43	0.091
864.86	0.086
865.30	0.085
865.73	0.090
866.16	0.092
866.59	0.083
867.02	0.085
867.45	0.088
867.88	0.084
868.31	0.081
868.75	0.092
869.18	0.093
869.61	0.090
870.04	0.084
870.47	0.086
870.90	0.089
871.33	0.088
871.76	0.085
872.19	0.092
872.62	0.094
873.06	0.088
873.49	0.092
873.92	0.090
874.35	0.098
874.78	0.091
875.21	0.094
875.64	0.090
876.07	0.094
876.50	0.093
876.93	0.099
877.36	0.087
877.79	0.093
878.22	0.100
878.65	0.093
879.08	0.092
879.51	0.085
879.94	0.095
880.37	0.094
880.80	0.089
881.23	0.090
881.67	0.090
882.10	0.094
882.53	0.094
882.96	0.087
883.39	0.097
883.82	0.089
884.25	0.087
884.68	0.090
885.11	0.092
885.54	0.096
885.97	0.094
886.39	0.090
886.82	0.098
887.25	0.094
887.68	0.098
888.11	0.094
888.54	0.100
888.97	0.094
889.40	0.092
889.83	0.100
890.26	0.089
890.69	0.099
891.12	0.104
891.55	0.098
891.98	0.094
892.41	0.102
892.84	0.102
893.27	0.092
893.70	0.100
894.13	0.097
894.56	0.093
894.98	0.097
895.41	0.095
895.84	0.099
896.27	0.100
896.70	0.101
897.13	0.098
897.56	0.102
897.99	0.099
898.42	0.101
898.85	0.102
899.27	0.096
899.70	0.093
900.13	0.095
900.56	0.100
900.99	0.099
901.42	0.102
901.85	0.101
902.28	0.100
902.70	0.099
903.13	0.097
903.56	0.098
903.99	0.099
904.42	0.094
904.85	0.098
905.27	0.098
905.70	0.104
906.13	0.102
906.56	0.101
906.99	0.100
907.42	0.099
907.84	0.104
908.27	0.100
908.70	0.100
909.13	0.099
909.56	0.103
909.98	0.092
910.41	0.098
910.84	0.101
911.27	0.107
911.70	0.105
912.12	0.093
912.55	0.100
912.98	0.101
913.41	0.095
913.84	0.102
914.26	0.103
914.69	0.101
915.12	0.100
915.55	0.096
915.97	0.102
916.40	0.097
916.83	0.095
917.26	0.105
917.68	0.102
918.11	0.099
918.54	0.098
918.97	0.105
919.39	0.099
919.82	0.105
920.25	0.098
920.67	0.101
921.10	0.101
921.53	0.101
921.96	0.104
922.38	0.101
922.81	0.105
923.24	0.103
923.66	0.106
924.09	0.105
924.52	0.101
924.94	0.104
925.37	0.106
925.80	0.107
926.22	0.107
926.65	0.110
927.08	0.106
927.50	0.106
927.93	0.116
928.36	0.110
928.78	0.111
929.21	0.112
929.64	0.113
930.06	0.114
930.49	0.113
930.92	0.114
931.34	0.124
931.77	0.118
932.20	0.114
932.62	0.120
933.05	0.118
933.47	0.124
933.90	0.122
934.33	0.126
934.75	0.129
935.18	0.130
935.61	0.127
936.03	0.138
936.46	0.130
936.88	0.133
937.31	0.136
937.73	0.137
938.16	0.138
938.59	0.141
939.01	0.138
939.44	0.143
939.86	0.141
940.29	0.139
940.71	0.152
941.14	0.148
941.57	0.146
941.99	0.151
942.42	0.160
942.84	0.160
943.27	0.160
943.69	0.159
944.12	0.170
944.54	0.166
944.97	0.166
945.39	0.175
945.82	0.172
946.24	0.178
946.67	0.179
947.09	0.180
947.52	0.172
947.94	0.183
948.37	0.185
948.79	0.186
949.22	0.183
949.64	0.189
950.07	0.188
950.49	0.203
950.92	0.202
951.34	0.199
951.77	0.205
952.19	0.204
952.62	0.209
953.04	0.214
953.47	0.217
953.89	0.223
954.32	0.216
954.74	0.237
955.17	0.224
955.59	0.233
956.01	0.236
956.44	0.239
956.86	0.234
957.29	0.242
957.71	0.241
958.14	0.240
958.56	0.244
958.98	0.244
959.41	0.257
959.83	0.255
960.26	0.248
960.68	0.255
961.10	0.261
961.53	0.259
961.95	0.255
962.38	0.258
962.80	0.253
963.22	0.259
963.65	0.255
964.07	0.259
964.50	0.264
964.92	0.258
965.34	0.269
965.77	0.265
966.19	0.263
966.61	0.271
967.04	0.271
967.46	0.271
967.88	0.269
968.31	0.263
968.73	0.269
969.15	0.267
969.58	0.267
970.00	0.273
970.42	0.277
970.85	0.262
971.27	0.273
971.69	0.274
972.12	0.278
972.54	0.271
972.96	0.282
973.39	0.283
973.81	0.272
974.23	0.275
974.65	0.282
975.08	0.273
975.50	0.272
975.92	0.275
976.35	0.272
976.77	0.274
977.19	0.279
977.61	0.266
978.04	0.272
978.46	0.271
978.88	0.271
979.30	0.276
979.73	0.282
980.15	0.271
980.57	0.278
980.99	0.275
981.42	0.274
981.84	0.278
982.26	0.275
982.68	0.277
983.11	0.264
983.53	0.274
983.95	0.277
984.37	0.272
984.79	0.264
985.22	0.268
985.64	0.269
986.06	0.262
986.48	0.272
986.90	0.271
987.33	0.269
987.75	0.264
988.17	0.265
988.59	0.265
989.01	0.266
989.43	0.265
989.86	0.262
990.28	0.271
990.70	0.265
991.12	0.263
991.54	0.264
991.96	0.262
992.39	0.267
992.81	0.264
993.23	0.266
993.65	0.267
994.07	0.254
994.49	0.264
994.91	0.253
995.34	0.254
995.76	0.254
996.18	0.262
996.60	0.260
997.02	0.254
997.44	0.251
997.86	0.260
998.28	0.253
998.70	0.256
999.12	0.256
999.55	0.260
999.97	0.255
1000.39	0.253
1000.81	0.248
1001.23	0.245
1001.65	0.240
1002.07	0.245
1002.49	0.243
1002.91	0.245
1003.33	0.226
1003.75	0.253
1004.17	0.242
1004.59	0.243
1005.01	0.248
1005.43	0.242
1005.85	0.236
1006.28	0.239
1006.70	0.234
1007.12	0.243
1007.54	0.242
1007.96	0.227
1008.38	0.241
1008.80	0.228
1009.22	0.231
1009.64	0.213
1010.06	0.232
1010.48	0.228
1010.90	0.235
1011.32	0.220
1011.74	0.224
1012.16	0.219
1012.58	0.218
1013.00	0.226
1013.42	0.212
1013.84	0.208
1014.26	0.217
1014.67	0.222
1015.09	0.216
1015.51	0.207
1015.93	0.216
1016.35	0.222
1016.77	0.224
1017.19	0.208
1017.61	0.213
1018.03	0.206
1018.45	0.216
1018.87	0.210
1019.29	0.212
1019.71	0.199
1020.13	0.209
1020.55	0.217
1020.97	0.193
1021.38	0.201
1021.80	0.203
1022.22	0.212
1022.64	0.190
1023.06	0.186
1023.48	0.188
1023.90	0.191
1024.32	0.192
1024.74	0.195
1025.15	0.191
1025.57	0.197
1025.99	0.188
1026.41	0.183
1026.83	0.190
1027.25	0.183
1027.67	0.182
1028.08	0.193
1028.50	0.182
1028.92	0.184
1029.34	0.181
1029.76	0.177
1030.18	0.175
1030.60	0.173
1031.01	0.179
1031.43	0.182
1031.85	0.167
1032.27	0.169
1032.69	0.180
1033.10	0.173
1033.52	0.187
1033.94	0.169
1034.36	0.172
1034.78	0.163
1035.19	0.173
1035.61	0.182
1036.03	0.173
1036.45	0.158
1036.87	0.143
1037.28	0.165
1037.70	0.158
1038.12	0.160
1038.54	0.151
1038.95	0.160
1039.37	0.155
1039.79	0.169
1040.21	0.172
1040.62	0.159
1041.04	0.152
1041.46	0.149
1041.88	0.166
1042.29	0.163
1042.71	0.141
1043.13	0.155
1043.55	0.147
1043.96	0.131
1044.38	0.166
1044.80	0.159
1045.21	0.151
1045.63	0.152
1046.05	0.143
1046.47	0.157
1046.88	0.154
1047.30	0.148
1047.72	0.161
1048.13	0.157
1048.55	0.151
1048.97	0.153
1049.38	0.141
1049.80	0.160
1050.22	0.163
1050.63	0.128
1051.05	0.165
1051.47	0.153
1051.88	0.160
1052.30	0.163
1052.72	0.142
1053.13	0.149
1053.55	0.140
1053.97	0.118
1054.38	0.137
1054.80	0.109
1055.21	0.135
1055.63	0.168
1056.05	0.151
1056.46	0.148
1056.88	0.179
1057.29	0.154
1057.71	0.124
1058.13	0.157
1058.54	0.162
1058.96	0.122
1059.37	0.173
1059.79	0.181
1060.21	0.168
1060.62	0.138
1061.04	0.170
1061.45	0.209
1061.87	0.148
1062.28	0.133
1062.70	0.203
1063.12	0.198
1063.53	0.191
1063.95	0.174
1064.36	0.136
1064.78	0.218
1065.19	0.135
1065.61	0.161
1066.02	0.271
1066.44	0.172
1066.85	0.117
1067.27	0.235
1067.68	0.205
1068.10	0.111
1068.51	0.248
1068.93	0.119
1069.35	0.226
1069.76	0.217
1070.17	0.197
1070.59	0.335
1071.00	0.327
1071.42	0.197
1071.83	0.238
1072.25	0.159
1072.66	0.185
1073.08	0.293
1073.49	0.293
1073.91	0.172
1074.32	0.212
1074.74	0.163
1075.15	0.356
1075.57	0.426
1075.98	0.204
1076.40	0.378
1076.81	0.190
1077.22	0.254
1077.64	0.576
1078.05	0.274
1078.47	0.319
1078.88	0.172
1079.30	0.183
1079.71	0.727
1080.12	0.330
1080.54	0.230
1080.95	0.360
1081.37	0.331
1081.78	0.163
1082.19	0.209
1082.61	0.305
1083.02	0.331
1083.44	0.281
1083.85	0.389
1084.26	0.210
1084.68	0.361
1085.09	0.212
1085.50	0.591
1085.92	0.382
1086.33	0.919
1086.74	0.834
1087.16	0.525
1087.57	0.797
1087.98	0.670
1088.40	0.275
1088.81	0.705
1089.22	0.096
1089.64	0.639
1090.05	-0.000
1090.46	0.923
1090.88	0.314
1091.29	0.333
1091.70	0.531
1092.12	0.799
1092.53	-0.000
1092.94	0.446
1093.36	0.602
1093.77	-0.000
1094.18	0.968
1094.59	0.312
1095.01	1.034
1095.42	0.568
1095.83	1.439
1096.25	0.993
1096.66	0.374
1097.07	0.709
1097.48	0.406
1097.90	0.653
1098.31	0.463
1098.72	1.497
1099.13	-0.000
>>>>>End Processed Spectral Data<<<<<
