SpectraSuite Data File
++++++++++++++++++++++++++++++++++++
Date: Tue Jul 11 14:27:29 CEST 2017
User: IPCE
Dark Spectrum Present: Yes
Reference Spectrum Present: Yes
Number of Sampled Component Spectra: 1
Spectrometers: HR+C0708
Integration Time (usec): 1000 (HR+C0708)
Spectra Averaged: 10 (HR+C0708)
Boxcar Smoothing: 0 (HR+C0708)
Correct for Electrical Dark: No (HR+C0708)
Strobe/Lamp Enabled: No (HR+C0708)
Correct for Detector Non-linearity: No (HR+C0708)
Correct for Stray Light: No (HR+C0708)
Number of Pixels in Processed Spectrum: 2048
>>>>>Begin Processed Spectral Data<<<<<
188.76	0.537
189.23	0.616
189.70	0.398
190.17	0.276
190.64	0.140
191.12	0.514
191.59	0.314
192.06	0.599
192.53	0.631
193.01	0.563
193.48	0.494
193.95	0.014
194.42	0.502
194.90	0.451
195.37	0.558
195.84	0.912
196.31	0.617
196.78	0.927
197.26	0.396
197.73	0.191
198.20	-0.103
198.67	-0.000
199.14	0.462
199.62	-0.000
200.09	1.788
200.56	0.274
201.03	0.613
201.50	0.456
201.97	0.494
202.45	0.472
202.92	0.224
203.39	0.330
203.86	0.329
204.33	0.295
204.80	0.443
205.28	0.497
205.75	0.248
206.22	0.464
206.69	0.372
207.16	0.267
207.63	0.401
208.11	0.380
208.58	0.303
209.05	0.710
209.52	0.227
209.99	0.379
210.46	0.395
210.93	0.367
211.41	0.359
211.88	0.343
212.35	0.312
212.82	0.383
213.29	0.349
213.76	0.291
214.23	0.346
214.70	0.519
215.18	0.466
215.65	0.577
216.12	0.338
216.59	0.469
217.06	0.562
217.53	0.369
218.00	0.453
218.47	0.641
218.94	0.469
219.41	0.395
219.89	0.307
220.36	0.430
220.83	0.573
221.30	0.397
221.77	0.458
222.24	0.470
222.71	0.456
223.18	0.490
223.65	0.599
224.12	0.649
224.59	0.538
225.06	0.528
225.54	0.685
226.01	0.813
226.48	0.688
226.95	0.753
227.42	0.992
227.89	0.886
228.36	1.110
228.83	1.017
229.30	0.986
229.77	1.080
230.24	1.178
230.71	1.160
231.18	1.219
231.65	1.113
232.12	1.372
232.59	1.547
233.06	1.297
233.53	1.702
234.00	1.359
234.47	1.487
234.94	1.610
235.41	1.585
235.88	1.758
236.35	1.701
236.82	1.741
237.29	1.993
237.76	1.890
238.23	1.831
238.70	1.905
239.17	2.099
239.64	2.136
240.11	1.966
240.58	1.878
241.05	2.062
241.52	2.182
241.99	1.991
242.46	2.230
242.93	2.275
243.40	2.059
243.87	2.199
244.34	2.207
244.81	2.234
245.28	2.250
245.75	2.266
246.22	2.152
246.69	2.235
247.16	2.305
247.63	2.422
248.10	2.510
248.57	2.126
249.04	2.273
249.51	2.230
249.98	2.281
250.45	2.213
250.92	2.136
251.39	2.091
251.85	1.999
252.32	1.917
252.79	1.792
253.26	1.746
253.73	1.642
254.20	1.565
254.67	1.451
255.14	1.370
255.61	1.327
256.08	1.276
256.55	1.207
257.02	1.162
257.49	1.116
257.95	1.085
258.42	1.061
258.89	1.017
259.36	0.998
259.83	0.974
260.30	0.944
260.77	0.932
261.24	0.905
261.71	0.891
262.17	0.871
262.64	0.856
263.11	0.844
263.58	0.832
264.05	0.815
264.52	0.804
264.99	0.790
265.46	0.781
265.92	0.775
266.39	0.757
266.86	0.751
267.33	0.742
267.80	0.736
268.27	0.725
268.74	0.714
269.20	0.705
269.67	0.697
270.14	0.694
270.61	0.685
271.08	0.681
271.55	0.674
272.01	0.664
272.48	0.660
272.95	0.655
273.42	0.652
273.89	0.641
274.36	0.635
274.82	0.630
275.29	0.632
275.76	0.623
276.23	0.624
276.70	0.615
277.16	0.609
277.63	0.610
278.10	0.608
278.57	0.604
279.04	0.598
279.50	0.595
279.97	0.598
280.44	0.598
280.91	0.592
281.38	0.590
281.84	0.591
282.31	0.584
282.78	0.585
283.25	0.585
283.72	0.587
284.18	0.587
284.65	0.584
285.12	0.584
285.59	0.584
286.05	0.584
286.52	0.585
286.99	0.587
287.46	0.586
287.92	0.583
288.39	0.582
288.86	0.583
289.33	0.581
289.79	0.584
290.26	0.580
290.73	0.577
291.20	0.577
291.66	0.580
292.13	0.574
292.60	0.568
293.07	0.564
293.53	0.562
294.00	0.559
294.47	0.547
294.93	0.547
295.40	0.541
295.87	0.537
296.34	0.526
296.80	0.526
297.27	0.516
297.74	0.508
298.20	0.502
298.67	0.497
299.14	0.488
299.60	0.479
300.07	0.471
300.54	0.462
301.01	0.459
301.47	0.449
301.94	0.440
302.41	0.439
302.87	0.426
303.34	0.421
303.81	0.414
304.27	0.409
304.74	0.399
305.21	0.391
305.67	0.388
306.14	0.386
306.61	0.378
307.07	0.373
307.54	0.367
308.01	0.361
308.47	0.360
308.94	0.355
309.40	0.348
309.87	0.345
310.34	0.346
310.80	0.343
311.27	0.338
311.74	0.334
312.20	0.333
312.67	0.329
313.13	0.326
313.60	0.326
314.07	0.322
314.53	0.318
315.00	0.319
315.47	0.316
315.93	0.315
316.40	0.313
316.86	0.310
317.33	0.311
317.80	0.307
318.26	0.306
318.73	0.308
319.19	0.304
319.66	0.304
320.13	0.299
320.59	0.299
321.06	0.297
321.52	0.297
321.99	0.293
322.45	0.291
322.92	0.295
323.39	0.287
323.85	0.285
324.32	0.286
324.78	0.285
325.25	0.285
325.71	0.284
326.18	0.282
326.64	0.279
327.11	0.278
327.58	0.275
328.04	0.276
328.51	0.272
328.97	0.274
329.44	0.270
329.90	0.269
330.37	0.264
330.83	0.266
331.30	0.261
331.76	0.262
332.23	0.258
332.69	0.260
333.16	0.258
333.62	0.256
334.09	0.255
334.56	0.252
335.02	0.249
335.49	0.249
335.95	0.247
336.42	0.245
336.88	0.243
337.35	0.243
337.81	0.240
338.28	0.240
338.74	0.239
339.20	0.238
339.67	0.239
340.13	0.237
340.60	0.236
341.06	0.233
341.53	0.229
341.99	0.232
342.46	0.233
342.92	0.228
343.39	0.230
343.85	0.222
344.32	0.225
344.78	0.227
345.25	0.225
345.71	0.224
346.17	0.225
346.64	0.223
347.10	0.221
347.57	0.220
348.03	0.218
348.50	0.212
348.96	0.216
349.43	0.214
349.89	0.216
350.35	0.210
350.82	0.215
351.28	0.208
351.75	0.210
352.21	0.206
352.67	0.207
353.14	0.207
353.60	0.201
354.07	0.197
354.53	0.198
355.00	0.198
355.46	0.192
355.92	0.192
356.39	0.189
356.85	0.187
357.31	0.188
357.78	0.184
358.24	0.182
358.71	0.180
359.17	0.174
359.63	0.177
360.10	0.175
360.56	0.167
361.03	0.170
361.49	0.167
361.95	0.166
362.42	0.163
362.88	0.162
363.34	0.161
363.81	0.159
364.27	0.160
364.73	0.160
365.20	0.159
365.66	0.157
366.12	0.157
366.59	0.153
367.05	0.155
367.51	0.155
367.98	0.153
368.44	0.156
368.90	0.153
369.37	0.151
369.83	0.154
370.29	0.151
370.76	0.150
371.22	0.152
371.68	0.149
372.15	0.149
372.61	0.149
373.07	0.150
373.54	0.149
374.00	0.151
374.46	0.148
374.92	0.149
375.39	0.149
375.85	0.146
376.31	0.149
376.78	0.146
377.24	0.146
377.70	0.148
378.16	0.145
378.63	0.149
379.09	0.145
379.55	0.146
380.01	0.143
380.48	0.144
380.94	0.147
381.40	0.145
381.87	0.147
382.33	0.143
382.79	0.144
383.25	0.144
383.72	0.144
384.18	0.141
384.64	0.143
385.10	0.142
385.56	0.143
386.03	0.142
386.49	0.142
386.95	0.138
387.41	0.142
387.88	0.137
388.34	0.140
388.80	0.140
389.26	0.137
389.72	0.142
390.19	0.142
390.65	0.141
391.11	0.140
391.57	0.139
392.04	0.135
392.50	0.139
392.96	0.138
393.42	0.137
393.88	0.138
394.34	0.135
394.81	0.136
395.27	0.137
395.73	0.139
396.19	0.133
396.65	0.138
397.12	0.134
397.58	0.135
398.04	0.136
398.50	0.137
398.96	0.135
399.42	0.138
399.89	0.135
400.35	0.134
400.81	0.135
401.27	0.132
401.73	0.134
402.19	0.133
402.65	0.131
403.12	0.131
403.58	0.129
404.04	0.128
404.50	0.129
404.96	0.130
405.42	0.131
405.88	0.129
406.34	0.130
406.81	0.129
407.27	0.126
407.73	0.126
408.19	0.126
408.65	0.128
409.11	0.128
409.57	0.125
410.03	0.125
410.49	0.123
410.96	0.124
411.42	0.122
411.88	0.123
412.34	0.123
412.80	0.126
413.26	0.125
413.72	0.127
414.18	0.122
414.64	0.122
415.10	0.122
415.56	0.121
416.02	0.121
416.48	0.122
416.95	0.122
417.41	0.123
417.87	0.123
418.33	0.121
418.79	0.121
419.25	0.122
419.71	0.124
420.17	0.122
420.63	0.119
421.09	0.118
421.55	0.117
422.01	0.119
422.47	0.123
422.93	0.122
423.39	0.122
423.85	0.123
424.31	0.122
424.77	0.118
425.23	0.118
425.69	0.116
426.15	0.116
426.61	0.118
427.07	0.118
427.53	0.119
427.99	0.117
428.45	0.116
428.91	0.116
429.37	0.116
429.83	0.119
430.29	0.118
430.75	0.119
431.21	0.120
431.67	0.118
432.13	0.114
432.59	0.116
433.05	0.116
433.51	0.116
433.97	0.119
434.43	0.117
434.89	0.116
435.35	0.116
435.81	0.111
436.27	0.114
436.73	0.117
437.19	0.116
437.65	0.117
438.11	0.115
438.57	0.116
439.03	0.110
439.48	0.111
439.94	0.112
440.40	0.114
440.86	0.109
441.32	0.111
441.78	0.114
442.24	0.112
442.70	0.113
443.16	0.110
443.62	0.117
444.08	0.111
444.54	0.113
444.99	0.113
445.45	0.115
445.91	0.111
446.37	0.108
446.83	0.111
447.29	0.109
447.75	0.110
448.21	0.109
448.67	0.108
449.12	0.112
449.58	0.109
450.04	0.111
450.50	0.108
450.96	0.110
451.42	0.111
451.88	0.109
452.34	0.110
452.79	0.107
453.25	0.110
453.71	0.109
454.17	0.107
454.63	0.105
455.09	0.112
455.55	0.111
456.00	0.109
456.46	0.108
456.92	0.103
457.38	0.106
457.84	0.105
458.30	0.108
458.75	0.109
459.21	0.106
459.67	0.107
460.13	0.107
460.59	0.109
461.04	0.107
461.50	0.108
461.96	0.106
462.42	0.106
462.88	0.107
463.33	0.108
463.79	0.109
464.25	0.108
464.71	0.109
465.17	0.106
465.62	0.109
466.08	0.108
466.54	0.107
467.00	0.108
467.46	0.107
467.91	0.106
468.37	0.109
468.83	0.109
469.29	0.107
469.74	0.107
470.20	0.108
470.66	0.110
471.12	0.109
471.57	0.107
472.03	0.110
472.49	0.109
472.95	0.110
473.40	0.107
473.86	0.108
474.32	0.108
474.78	0.110
475.23	0.109
475.69	0.108
476.15	0.109
476.60	0.109
477.06	0.109
477.52	0.109
477.98	0.108
478.43	0.108
478.89	0.108
479.35	0.108
479.80	0.107
480.26	0.106
480.72	0.105
481.18	0.111
481.63	0.107
482.09	0.104
482.55	0.107
483.00	0.108
483.46	0.107
483.92	0.105
484.37	0.108
484.83	0.106
485.29	0.109
485.74	0.107
486.20	0.109
486.66	0.108
487.11	0.105
487.57	0.106
488.03	0.108
488.48	0.107
488.94	0.108
489.40	0.105
489.85	0.107
490.31	0.106
490.77	0.104
491.22	0.107
491.68	0.107
492.13	0.108
492.59	0.105
493.05	0.107
493.50	0.108
493.96	0.106
494.42	0.106
494.87	0.106
495.33	0.105
495.78	0.106
496.24	0.105
496.70	0.107
497.15	0.106
497.61	0.108
498.06	0.105
498.52	0.108
498.98	0.106
499.43	0.106
499.89	0.107
500.34	0.108
500.80	0.107
501.25	0.104
501.71	0.104
502.17	0.106
502.62	0.106
503.08	0.106
503.53	0.103
503.99	0.104
504.44	0.105
504.90	0.104
505.36	0.105
505.81	0.105
506.27	0.104
506.72	0.106
507.18	0.105
507.63	0.104
508.09	0.105
508.54	0.104
509.00	0.102
509.45	0.104
509.91	0.104
510.36	0.105
510.82	0.104
511.27	0.105
511.73	0.106
512.19	0.104
512.64	0.102
513.10	0.104
513.55	0.103
514.01	0.103
514.46	0.106
514.92	0.104
515.37	0.104
515.83	0.104
516.28	0.104
516.73	0.106
517.19	0.103
517.64	0.102
518.10	0.103
518.55	0.102
519.01	0.102
519.46	0.102
519.92	0.102
520.37	0.102
520.83	0.104
521.28	0.100
521.74	0.103
522.19	0.099
522.65	0.102
523.10	0.104
523.55	0.101
524.01	0.103
524.46	0.103
524.92	0.101
525.37	0.099
525.83	0.102
526.28	0.102
526.73	0.103
527.19	0.102
527.64	0.101
528.10	0.104
528.55	0.102
529.01	0.105
529.46	0.105
529.91	0.102
530.37	0.104
530.82	0.102
531.28	0.102
531.73	0.102
532.18	0.104
532.64	0.103
533.09	0.104
533.54	0.105
534.00	0.102
534.45	0.103
534.91	0.103
535.36	0.104
535.81	0.106
536.27	0.105
536.72	0.105
537.17	0.105
537.63	0.104
538.08	0.105
538.54	0.106
538.99	0.107
539.44	0.107
539.90	0.104
540.35	0.104
540.80	0.107
541.26	0.107
541.71	0.108
542.16	0.109
542.62	0.109
543.07	0.109
543.52	0.109
543.98	0.108
544.43	0.107
544.88	0.108
545.34	0.110
545.79	0.111
546.24	0.111
546.69	0.111
547.15	0.111
547.60	0.111
548.05	0.110
548.51	0.112
548.96	0.110
549.41	0.112
549.86	0.111
550.32	0.112
550.77	0.111
551.22	0.112
551.68	0.114
552.13	0.115
552.58	0.115
553.03	0.114
553.49	0.113
553.94	0.114
554.39	0.117
554.84	0.115
555.30	0.116
555.75	0.117
556.20	0.119
556.65	0.117
557.11	0.121
557.56	0.118
558.01	0.120
558.46	0.121
558.92	0.122
559.37	0.122
559.82	0.122
560.27	0.123
560.72	0.124
561.18	0.122
561.63	0.124
562.08	0.124
562.53	0.126
562.99	0.126
563.44	0.127
563.89	0.126
564.34	0.127
564.79	0.127
565.25	0.128
565.70	0.132
566.15	0.131
566.60	0.130
567.05	0.133
567.50	0.133
567.96	0.130
568.41	0.131
568.86	0.134
569.31	0.134
569.76	0.133
570.21	0.134
570.67	0.138
571.12	0.135
571.57	0.137
572.02	0.139
572.47	0.138
572.92	0.140
573.37	0.141
573.83	0.139
574.28	0.142
574.73	0.143
575.18	0.143
575.63	0.145
576.08	0.145
576.53	0.146
576.98	0.146
577.44	0.147
577.89	0.148
578.34	0.150
578.79	0.149
579.24	0.152
579.69	0.154
580.14	0.153
580.59	0.156
581.04	0.154
581.49	0.154
581.95	0.158
582.40	0.158
582.85	0.161
583.30	0.162
583.75	0.164
584.20	0.165
584.65	0.167
585.10	0.167
585.55	0.166
586.00	0.169
586.45	0.169
586.90	0.172
587.35	0.175
587.80	0.175
588.25	0.177
588.71	0.179
589.16	0.178
589.61	0.180
590.06	0.181
590.51	0.185
590.96	0.188
591.41	0.188
591.86	0.187
592.31	0.194
592.76	0.192
593.21	0.194
593.66	0.197
594.11	0.198
594.56	0.198
595.01	0.202
595.46	0.205
595.91	0.207
596.36	0.208
596.81	0.210
597.26	0.212
597.71	0.214
598.16	0.214
598.61	0.216
599.06	0.217
599.51	0.218
599.96	0.223
600.41	0.224
600.86	0.223
601.31	0.225
601.76	0.231
602.21	0.230
602.65	0.231
603.10	0.233
603.55	0.236
604.00	0.237
604.45	0.239
604.90	0.241
605.35	0.242
605.80	0.242
606.25	0.245
606.70	0.248
607.15	0.247
607.60	0.248
608.05	0.250
608.50	0.253
608.95	0.255
609.39	0.255
609.84	0.256
610.29	0.257
610.74	0.257
611.19	0.258
611.64	0.262
612.09	0.263
612.54	0.263
612.99	0.262
613.44	0.263
613.88	0.264
614.33	0.265
614.78	0.268
615.23	0.269
615.68	0.266
616.13	0.268
616.58	0.269
617.03	0.268
617.47	0.271
617.92	0.271
618.37	0.272
618.82	0.273
619.27	0.273
619.72	0.273
620.17	0.275
620.61	0.273
621.06	0.274
621.51	0.278
621.96	0.276
622.41	0.276
622.86	0.279
623.30	0.278
623.75	0.279
624.20	0.280
624.65	0.281
625.10	0.280
625.54	0.283
625.99	0.285
626.44	0.287
626.89	0.284
627.34	0.285
627.78	0.286
628.23	0.288
628.68	0.289
629.13	0.291
629.58	0.291
630.02	0.295
630.47	0.295
630.92	0.297
631.37	0.297
631.81	0.298
632.26	0.301
632.71	0.302
633.16	0.303
633.61	0.306
634.05	0.309
634.50	0.309
634.95	0.312
635.40	0.315
635.84	0.314
636.29	0.317
636.74	0.320
637.18	0.322
637.63	0.324
638.08	0.323
638.53	0.327
638.97	0.331
639.42	0.333
639.87	0.334
640.32	0.339
640.76	0.340
641.21	0.341
641.66	0.347
642.10	0.349
642.55	0.351
643.00	0.353
643.44	0.357
643.89	0.359
644.34	0.362
644.79	0.366
645.23	0.369
645.68	0.371
646.13	0.374
646.57	0.378
647.02	0.382
647.47	0.384
647.91	0.386
648.36	0.391
648.81	0.394
649.25	0.393
649.70	0.398
650.15	0.399
650.59	0.405
651.04	0.406
651.48	0.406
651.93	0.411
652.38	0.414
652.82	0.414
653.27	0.416
653.72	0.417
654.16	0.421
654.61	0.427
655.06	0.425
655.50	0.424
655.95	0.430
656.39	0.433
656.84	0.435
657.29	0.436
657.73	0.436
658.18	0.439
658.62	0.443
659.07	0.445
659.52	0.443
659.96	0.445
660.41	0.447
660.85	0.446
661.30	0.448
661.74	0.448
662.19	0.450
662.64	0.452
663.08	0.455
663.53	0.454
663.97	0.453
664.42	0.454
664.86	0.455
665.31	0.454
665.75	0.454
666.20	0.452
666.65	0.451
667.09	0.450
667.54	0.449
667.98	0.444
668.43	0.445
668.87	0.444
669.32	0.438
669.76	0.434
670.21	0.431
670.65	0.430
671.10	0.428
671.54	0.421
671.99	0.415
672.43	0.411
672.88	0.407
673.32	0.403
673.77	0.395
674.21	0.390
674.66	0.386
675.10	0.378
675.55	0.374
675.99	0.362
676.44	0.359
676.88	0.353
677.33	0.347
677.77	0.338
678.22	0.329
678.66	0.325
679.11	0.316
679.55	0.308
679.99	0.300
680.44	0.295
680.88	0.287
681.33	0.279
681.77	0.270
682.22	0.263
682.66	0.256
683.11	0.252
683.55	0.241
683.99	0.235
684.44	0.230
684.88	0.227
685.33	0.218
685.77	0.210
686.21	0.204
686.66	0.199
687.10	0.194
687.55	0.187
687.99	0.182
688.44	0.177
688.88	0.171
689.32	0.168
689.77	0.163
690.21	0.158
690.65	0.154
691.10	0.149
691.54	0.145
691.99	0.139
692.43	0.137
692.87	0.134
693.32	0.131
693.76	0.127
694.20	0.126
694.65	0.122
695.09	0.121
695.53	0.116
695.98	0.114
696.42	0.113
696.86	0.107
697.31	0.105
697.75	0.105
698.19	0.102
698.64	0.097
699.08	0.099
699.52	0.099
699.97	0.094
700.41	0.094
700.85	0.094
701.30	0.090
701.74	0.086
702.18	0.090
702.63	0.086
703.07	0.087
703.51	0.086
703.96	0.086
704.40	0.084
704.84	0.082
705.28	0.081
705.73	0.081
706.17	0.079
706.61	0.078
707.06	0.081
707.50	0.079
707.94	0.074
708.38	0.076
708.83	0.078
709.27	0.076
709.71	0.073
710.15	0.074
710.60	0.076
711.04	0.073
711.48	0.073
711.92	0.074
712.37	0.071
712.81	0.070
713.25	0.070
713.69	0.073
714.13	0.069
714.58	0.070
715.02	0.069
715.46	0.067
715.90	0.067
716.35	0.071
716.79	0.070
717.23	0.070
717.67	0.074
718.11	0.070
718.56	0.068
719.00	0.070
719.44	0.072
719.88	0.068
720.32	0.070
720.76	0.068
721.21	0.069
721.65	0.068
722.09	0.070
722.53	0.069
722.97	0.067
723.41	0.068
723.86	0.069
724.30	0.069
724.74	0.068
725.18	0.068
725.62	0.070
726.06	0.072
726.50	0.070
726.95	0.068
727.39	0.069
727.83	0.067
728.27	0.068
728.71	0.071
729.15	0.070
729.59	0.067
730.03	0.071
730.48	0.071
730.92	0.067
731.36	0.068
731.80	0.067
732.24	0.068
732.68	0.070
733.12	0.071
733.56	0.072
734.00	0.070
734.44	0.069
734.89	0.069
735.33	0.071
735.77	0.071
736.21	0.069
736.65	0.069
737.09	0.069
737.53	0.072
737.97	0.073
738.41	0.069
738.85	0.074
739.29	0.071
739.73	0.071
740.17	0.070
740.61	0.071
741.05	0.071
741.49	0.071
741.93	0.068
742.37	0.073
742.81	0.073
743.26	0.070
743.70	0.071
744.14	0.072
744.58	0.070
745.02	0.070
745.46	0.073
745.90	0.073
746.34	0.074
746.78	0.070
747.22	0.071
747.66	0.070
748.10	0.072
748.54	0.068
748.98	0.071
749.42	0.070
749.86	0.070
750.29	0.071
750.73	0.069
751.17	0.068
751.61	0.068
752.05	0.071
752.49	0.069
752.93	0.068
753.37	0.072
753.81	0.071
754.25	0.069
754.69	0.065
755.13	0.070
755.57	0.066
756.01	0.071
756.45	0.069
756.89	0.071
757.33	0.069
757.77	0.068
758.21	0.069
758.64	0.069
759.08	0.068
759.52	0.070
759.96	0.068
760.40	0.066
760.84	0.069
761.28	0.067
761.72	0.069
762.16	0.069
762.60	0.068
763.03	0.068
763.47	0.068
763.91	0.068
764.35	0.068
764.79	0.070
765.23	0.068
765.67	0.069
766.11	0.070
766.54	0.068
766.98	0.069
767.42	0.067
767.86	0.066
768.30	0.066
768.74	0.066
769.17	0.067
769.61	0.068
770.05	0.071
770.49	0.067
770.93	0.071
771.37	0.070
771.80	0.068
772.24	0.071
772.68	0.070
773.12	0.068
773.56	0.072
774.00	0.069
774.43	0.068
774.87	0.065
775.31	0.067
775.75	0.070
776.19	0.067
776.62	0.068
777.06	0.069
777.50	0.068
777.94	0.070
778.37	0.068
778.81	0.069
779.25	0.069
779.69	0.067
780.13	0.065
780.56	0.066
781.00	0.068
781.44	0.064
781.88	0.071
782.31	0.072
782.75	0.072
783.19	0.068
783.63	0.067
784.06	0.068
784.50	0.067
784.94	0.066
785.37	0.070
785.81	0.068
786.25	0.066
786.69	0.069
787.12	0.071
787.56	0.067
788.00	0.066
788.43	0.068
788.87	0.067
789.31	0.069
789.75	0.072
790.18	0.071
790.62	0.066
791.06	0.065
791.49	0.064
791.93	0.069
792.37	0.067
792.80	0.065
793.24	0.067
793.68	0.066
794.11	0.069
794.55	0.067
794.99	0.069
795.42	0.063
795.86	0.068
796.30	0.067
796.73	0.069
797.17	0.068
797.61	0.068
798.04	0.067
798.48	0.069
798.91	0.070
799.35	0.064
799.79	0.067
800.22	0.063
800.66	0.064
801.10	0.065
801.53	0.071
801.97	0.068
802.40	0.066
802.84	0.068
803.28	0.065
803.71	0.069
804.15	0.067
804.58	0.068
805.02	0.068
805.46	0.068
805.89	0.068
806.33	0.065
806.76	0.066
807.20	0.062
807.63	0.065
808.07	0.062
808.51	0.061
808.94	0.066
809.38	0.069
809.81	0.060
810.25	0.068
810.68	0.070
811.12	0.066
811.55	0.066
811.99	0.065
812.42	0.065
812.86	0.065
813.29	0.069
813.73	0.066
814.17	0.067
814.60	0.068
815.04	0.062
815.47	0.065
815.91	0.066
816.34	0.061
816.78	0.066
817.21	0.064
817.65	0.063
818.08	0.066
818.52	0.068
818.95	0.067
819.39	0.062
819.82	0.068
820.25	0.069
820.69	0.062
821.12	0.064
821.56	0.067
821.99	0.065
822.43	0.068
822.86	0.063
823.30	0.064
823.73	0.063
824.17	0.062
824.60	0.069
825.04	0.066
825.47	0.066
825.90	0.069
826.34	0.068
826.77	0.072
827.21	0.066
827.64	0.068
828.08	0.069
828.51	0.066
828.94	0.064
829.38	0.071
829.81	0.069
830.25	0.069
830.68	0.068
831.11	0.071
831.55	0.075
831.98	0.067
832.42	0.068
832.85	0.077
833.28	0.067
833.72	0.074
834.15	0.074
834.58	0.075
835.02	0.072
835.45	0.068
835.88	0.071
836.32	0.074
836.75	0.064
837.19	0.073
837.62	0.075
838.05	0.071
838.49	0.074
838.92	0.072
839.35	0.076
839.79	0.076
840.22	0.074
840.65	0.072
841.09	0.071
841.52	0.073
841.95	0.069
842.39	0.070
842.82	0.077
843.25	0.074
843.68	0.075
844.12	0.074
844.55	0.068
844.98	0.077
845.42	0.076
845.85	0.075
846.28	0.073
846.71	0.077
847.15	0.081
847.58	0.076
848.01	0.068
848.45	0.075
848.88	0.073
849.31	0.070
849.74	0.073
850.18	0.080
850.61	0.074
851.04	0.075
851.47	0.074
851.91	0.076
852.34	0.075
852.77	0.074
853.20	0.081
853.64	0.071
854.07	0.073
854.50	0.070
854.93	0.078
855.36	0.073
855.80	0.072
856.23	0.077
856.66	0.076
857.09	0.077
857.52	0.078
857.96	0.072
858.39	0.071
858.82	0.075
859.25	0.073
859.68	0.077
860.12	0.070
860.55	0.073
860.98	0.082
861.41	0.078
861.84	0.076
862.27	0.073
862.71	0.083
863.14	0.073
863.57	0.075
864.00	0.077
864.43	0.078
864.86	0.073
865.30	0.076
865.73	0.077
866.16	0.082
866.59	0.075
867.02	0.077
867.45	0.077
867.88	0.077
868.31	0.078
868.75	0.079
869.18	0.081
869.61	0.076
870.04	0.076
870.47	0.077
870.90	0.077
871.33	0.079
871.76	0.077
872.19	0.077
872.62	0.077
873.06	0.070
873.49	0.084
873.92	0.078
874.35	0.081
874.78	0.078
875.21	0.086
875.64	0.079
876.07	0.083
876.50	0.082
876.93	0.083
877.36	0.079
877.79	0.081
878.22	0.092
878.65	0.079
879.08	0.082
879.51	0.076
879.94	0.078
880.37	0.080
880.80	0.083
881.23	0.079
881.67	0.079
882.10	0.079
882.53	0.082
882.96	0.082
883.39	0.083
883.82	0.079
884.25	0.080
884.68	0.085
885.11	0.083
885.54	0.089
885.97	0.085
886.39	0.080
886.82	0.085
887.25	0.085
887.68	0.082
888.11	0.083
888.54	0.086
888.97	0.085
889.40	0.080
889.83	0.084
890.26	0.083
890.69	0.088
891.12	0.086
891.55	0.085
891.98	0.081
892.41	0.091
892.84	0.088
893.27	0.082
893.70	0.086
894.13	0.089
894.56	0.084
894.98	0.087
895.41	0.084
895.84	0.087
896.27	0.085
896.70	0.095
897.13	0.087
897.56	0.084
897.99	0.087
898.42	0.090
898.85	0.095
899.27	0.089
899.70	0.086
900.13	0.088
900.56	0.088
900.99	0.090
901.42	0.090
901.85	0.096
902.28	0.090
902.70	0.091
903.13	0.092
903.56	0.090
903.99	0.089
904.42	0.083
904.85	0.087
905.27	0.091
905.70	0.088
906.13	0.091
906.56	0.093
906.99	0.094
907.42	0.089
907.84	0.092
908.27	0.089
908.70	0.092
909.13	0.090
909.56	0.092
909.98	0.084
910.41	0.089
910.84	0.088
911.27	0.091
911.70	0.092
912.12	0.089
912.55	0.095
912.98	0.092
913.41	0.088
913.84	0.089
914.26	0.087
914.69	0.087
915.12	0.088
915.55	0.087
915.97	0.091
916.40	0.091
916.83	0.089
917.26	0.092
917.68	0.094
918.11	0.089
918.54	0.087
918.97	0.093
919.39	0.089
919.82	0.095
920.25	0.089
920.67	0.092
921.10	0.091
921.53	0.092
921.96	0.094
922.38	0.091
922.81	0.090
923.24	0.096
923.66	0.094
924.09	0.097
924.52	0.096
924.94	0.096
925.37	0.096
925.80	0.094
926.22	0.098
926.65	0.099
927.08	0.100
927.50	0.101
927.93	0.105
928.36	0.103
928.78	0.101
929.21	0.106
929.64	0.103
930.06	0.103
930.49	0.105
930.92	0.103
931.34	0.108
931.77	0.109
932.20	0.104
932.62	0.107
933.05	0.112
933.47	0.114
933.90	0.113
934.33	0.112
934.75	0.119
935.18	0.112
935.61	0.118
936.03	0.127
936.46	0.118
936.88	0.120
937.31	0.122
937.73	0.128
938.16	0.125
938.59	0.131
939.01	0.129
939.44	0.134
939.86	0.128
940.29	0.131
940.71	0.134
941.14	0.140
941.57	0.138
941.99	0.136
942.42	0.151
942.84	0.148
943.27	0.150
943.69	0.152
944.12	0.162
944.54	0.157
944.97	0.154
945.39	0.159
945.82	0.159
946.24	0.162
946.67	0.171
947.09	0.168
947.52	0.169
947.94	0.172
948.37	0.173
948.79	0.186
949.22	0.179
949.64	0.174
950.07	0.175
950.49	0.185
950.92	0.182
951.34	0.196
951.77	0.194
952.19	0.194
952.62	0.195
953.04	0.200
953.47	0.201
953.89	0.207
954.32	0.209
954.74	0.220
955.17	0.215
955.59	0.217
956.01	0.226
956.44	0.226
956.86	0.230
957.29	0.231
957.71	0.238
958.14	0.226
958.56	0.238
958.98	0.238
959.41	0.237
959.83	0.241
960.26	0.245
960.68	0.250
961.10	0.248
961.53	0.246
961.95	0.247
962.38	0.258
962.80	0.248
963.22	0.248
963.65	0.256
964.07	0.257
964.50	0.250
964.92	0.245
965.34	0.256
965.77	0.250
966.19	0.254
966.61	0.264
967.04	0.262
967.46	0.258
967.88	0.256
968.31	0.255
968.73	0.257
969.15	0.259
969.58	0.260
970.00	0.259
970.42	0.262
970.85	0.259
971.27	0.263
971.69	0.260
972.12	0.262
972.54	0.263
972.96	0.273
973.39	0.261
973.81	0.260
974.23	0.262
974.65	0.268
975.08	0.261
975.50	0.263
975.92	0.265
976.35	0.262
976.77	0.259
977.19	0.261
977.61	0.262
978.04	0.262
978.46	0.263
978.88	0.260
979.30	0.269
979.73	0.273
980.15	0.254
980.57	0.264
980.99	0.269
981.42	0.265
981.84	0.267
982.26	0.264
982.68	0.259
983.11	0.250
983.53	0.263
983.95	0.260
984.37	0.262
984.79	0.259
985.22	0.261
985.64	0.257
986.06	0.253
986.48	0.256
986.90	0.262
987.33	0.260
987.75	0.260
988.17	0.263
988.59	0.260
989.01	0.262
989.43	0.254
989.86	0.252
990.28	0.252
990.70	0.252
991.12	0.253
991.54	0.252
991.96	0.246
992.39	0.249
992.81	0.248
993.23	0.249
993.65	0.250
994.07	0.237
994.49	0.250
994.91	0.245
995.34	0.239
995.76	0.246
996.18	0.246
996.60	0.246
997.02	0.247
997.44	0.239
997.86	0.240
998.28	0.238
998.70	0.244
999.12	0.242
999.55	0.239
999.97	0.235
1000.39	0.241
1000.81	0.237
1001.23	0.244
1001.65	0.229
1002.07	0.235
1002.49	0.234
1002.91	0.239
1003.33	0.229
1003.75	0.238
1004.17	0.228
1004.59	0.226
1005.01	0.230
1005.43	0.231
1005.85	0.229
1006.28	0.231
1006.70	0.226
1007.12	0.221
1007.54	0.228
1007.96	0.218
1008.38	0.229
1008.80	0.211
1009.22	0.218
1009.64	0.223
1010.06	0.221
1010.48	0.218
1010.90	0.220
1011.32	0.224
1011.74	0.212
1012.16	0.210
1012.58	0.204
1013.00	0.220
1013.42	0.197
1013.84	0.203
1014.26	0.208
1014.67	0.204
1015.09	0.203
1015.51	0.201
1015.93	0.210
1016.35	0.216
1016.77	0.204
1017.19	0.197
1017.61	0.204
1018.03	0.195
1018.45	0.201
1018.87	0.193
1019.29	0.195
1019.71	0.198
1020.13	0.188
1020.55	0.200
1020.97	0.185
1021.38	0.184
1021.80	0.192
1022.22	0.200
1022.64	0.189
1023.06	0.177
1023.48	0.186
1023.90	0.185
1024.32	0.181
1024.74	0.187
1025.15	0.175
1025.57	0.190
1025.99	0.183
1026.41	0.178
1026.83	0.186
1027.25	0.185
1027.67	0.173
1028.08	0.177
1028.50	0.165
1028.92	0.167
1029.34	0.169
1029.76	0.167
1030.18	0.167
1030.60	0.173
1031.01	0.169
1031.43	0.172
1031.85	0.155
1032.27	0.164
1032.69	0.159
1033.10	0.166
1033.52	0.161
1033.94	0.163
1034.36	0.153
1034.78	0.171
1035.19	0.151
1035.61	0.154
1036.03	0.162
1036.45	0.152
1036.87	0.143
1037.28	0.160
1037.70	0.149
1038.12	0.135
1038.54	0.143
1038.95	0.153
1039.37	0.159
1039.79	0.149
1040.21	0.152
1040.62	0.158
1041.04	0.142
1041.46	0.135
1041.88	0.145
1042.29	0.135
1042.71	0.127
1043.13	0.152
1043.55	0.134
1043.96	0.136
1044.38	0.139
1044.80	0.150
1045.21	0.144
1045.63	0.114
1046.05	0.137
1046.47	0.150
1046.88	0.125
1047.30	0.106
1047.72	0.146
1048.13	0.140
1048.55	0.152
1048.97	0.133
1049.38	0.140
1049.80	0.151
1050.22	0.134
1050.63	0.121
1051.05	0.137
1051.47	0.129
1051.88	0.148
1052.30	0.157
1052.72	0.104
1053.13	0.124
1053.55	0.150
1053.97	0.122
1054.38	0.136
1054.80	0.114
1055.21	0.124
1055.63	0.139
1056.05	0.146
1056.46	0.098
1056.88	0.168
1057.29	0.119
1057.71	0.125
1058.13	0.152
1058.54	0.113
1058.96	0.123
1059.37	0.132
1059.79	0.140
1060.21	0.160
1060.62	0.133
1061.04	0.124
1061.45	0.189
1061.87	0.158
1062.28	0.133
1062.70	0.184
1063.12	0.145
1063.53	0.135
1063.95	0.095
1064.36	0.130
1064.78	0.174
1065.19	0.137
1065.61	0.136
1066.02	0.195
1066.44	0.134
1066.85	0.116
1067.27	0.183
1067.68	0.139
1068.10	0.145
1068.51	0.118
1068.93	0.171
1069.35	0.264
1069.76	0.130
1070.17	0.237
1070.59	0.319
1071.00	0.232
1071.42	0.190
1071.83	0.254
1072.25	0.222
1072.66	0.151
1073.08	0.211
1073.49	0.364
1073.91	0.126
1074.32	0.186
1074.74	0.188
1075.15	0.272
1075.57	0.286
1075.98	0.140
1076.40	0.368
1076.81	0.178
1077.22	0.266
1077.64	0.187
1078.05	0.410
1078.47	0.227
1078.88	0.238
1079.30	0.143
1079.71	0.399
1080.12	0.430
1080.54	0.307
1080.95	0.394
1081.37	0.138
1081.78	0.179
1082.19	0.385
1082.61	0.134
1083.02	0.133
1083.44	0.099
1083.85	0.207
1084.26	0.223
1084.68	0.111
1085.09	0.301
1085.50	0.294
1085.92	0.143
1086.33	0.011
1086.74	0.745
1087.16	0.740
1087.57	0.626
1087.98	0.617
1088.40	0.156
1088.81	0.619
1089.22	-0.037
1089.64	0.695
1090.05	1.052
1090.46	0.218
1090.88	0.314
1091.29	0.377
1091.70	0.465
1092.12	0.210
1092.53	0.463
1092.94	0.461
1093.36	-0.000
1093.77	-0.000
1094.18	0.270
1094.59	0.201
1095.01	0.593
1095.42	-0.269
1095.83	0.501
1096.25	0.487
1096.66	-0.123
1097.07	0.134
1097.48	0.303
1097.90	0.423
1098.31	0.360
1098.72	0.192
1099.13	0.830
>>>>>End Processed Spectral Data<<<<<
