SpectraSuite Data File
++++++++++++++++++++++++++++++++++++
Date: Tue Jul 11 14:17:29 CEST 2017
User: IPCE
Dark Spectrum Present: Yes
Reference Spectrum Present: Yes
Number of Sampled Component Spectra: 1
Spectrometers: HR+C0708
Integration Time (usec): 1000 (HR+C0708)
Spectra Averaged: 10 (HR+C0708)
Boxcar Smoothing: 0 (HR+C0708)
Correct for Electrical Dark: No (HR+C0708)
Strobe/Lamp Enabled: No (HR+C0708)
Correct for Detector Non-linearity: No (HR+C0708)
Correct for Stray Light: No (HR+C0708)
Number of Pixels in Processed Spectrum: 2048
>>>>>Begin Processed Spectral Data<<<<<
188.76	0.366
189.23	0.230
189.70	-0.000
190.17	-0.000
190.64	-0.024
191.12	0.168
191.59	0.593
192.06	0.198
192.53	0.564
193.01	0.821
193.48	0.138
193.95	-0.441
194.42	0.278
194.90	0.511
195.37	-0.050
195.84	0.213
196.31	-0.000
196.78	0.927
197.26	0.031
197.73	0.178
198.20	0.095
198.67	-0.380
199.14	-0.430
199.62	-0.000
200.09	0.296
200.56	0.149
201.03	0.273
201.50	0.399
201.97	0.574
202.45	0.133
202.92	0.293
203.39	0.459
203.86	0.298
204.33	0.186
204.80	0.351
205.28	0.433
205.75	0.320
206.22	0.255
206.69	0.696
207.16	0.286
207.63	0.267
208.11	0.343
208.58	0.503
209.05	0.400
209.52	0.194
209.99	0.370
210.46	0.419
210.93	0.175
211.41	0.390
211.88	0.410
212.35	0.378
212.82	0.237
213.29	0.419
213.76	0.359
214.23	0.267
214.70	0.395
215.18	0.407
215.65	0.531
216.12	0.172
216.59	0.365
217.06	0.569
217.53	0.436
218.00	0.306
218.47	0.427
218.94	0.483
219.41	0.293
219.89	0.303
220.36	0.530
220.83	0.411
221.30	0.397
221.77	0.533
222.24	0.523
222.71	0.458
223.18	0.396
223.65	0.456
224.12	0.606
224.59	0.363
225.06	0.434
225.54	0.641
226.01	0.610
226.48	0.516
226.95	0.785
227.42	0.868
227.89	0.772
228.36	0.777
228.83	1.153
229.30	1.212
229.77	0.914
230.24	1.055
230.71	1.227
231.18	1.105
231.65	1.035
232.12	1.308
232.59	1.383
233.06	1.283
233.53	1.401
234.00	1.400
234.47	1.634
234.94	1.510
235.41	1.536
235.88	1.761
236.35	1.616
236.82	1.605
237.29	1.921
237.76	1.950
238.23	1.808
238.70	1.826
239.17	2.032
239.64	2.405
240.11	1.924
240.58	1.972
241.05	2.066
241.52	2.109
241.99	1.951
242.46	2.098
242.93	2.246
243.40	2.063
243.87	2.209
244.34	2.156
244.81	2.310
245.28	2.118
245.75	2.115
246.22	2.140
246.69	2.158
247.16	2.194
247.63	2.292
248.10	2.274
248.57	2.093
249.04	2.208
249.51	2.239
249.98	2.227
250.45	2.122
250.92	2.088
251.39	2.170
251.85	1.930
252.32	1.808
252.79	1.774
253.26	1.702
253.73	1.573
254.20	1.517
254.67	1.410
255.14	1.334
255.61	1.291
256.08	1.241
256.55	1.183
257.02	1.131
257.49	1.097
257.95	1.057
258.42	1.022
258.89	0.993
259.36	0.976
259.83	0.946
260.30	0.921
260.77	0.900
261.24	0.881
261.71	0.867
262.17	0.844
262.64	0.831
263.11	0.816
263.58	0.800
264.05	0.787
264.52	0.778
264.99	0.762
265.46	0.753
265.92	0.744
266.39	0.733
266.86	0.724
267.33	0.710
267.80	0.706
268.27	0.701
268.74	0.687
269.20	0.678
269.67	0.675
270.14	0.665
270.61	0.659
271.08	0.655
271.55	0.644
272.01	0.636
272.48	0.630
272.95	0.626
273.42	0.625
273.89	0.614
274.36	0.610
274.82	0.609
275.29	0.604
275.76	0.597
276.23	0.595
276.70	0.594
277.16	0.592
277.63	0.585
278.10	0.580
278.57	0.585
279.04	0.576
279.50	0.573
279.97	0.574
280.44	0.571
280.91	0.573
281.38	0.567
281.84	0.568
282.31	0.566
282.78	0.563
283.25	0.567
283.72	0.564
284.18	0.565
284.65	0.565
285.12	0.566
285.59	0.566
286.05	0.563
286.52	0.565
286.99	0.563
287.46	0.569
287.92	0.564
288.39	0.562
288.86	0.565
289.33	0.564
289.79	0.562
290.26	0.566
290.73	0.563
291.20	0.561
291.66	0.558
292.13	0.556
292.60	0.550
293.07	0.547
293.53	0.545
294.00	0.543
294.47	0.532
294.93	0.528
295.40	0.525
295.87	0.517
296.34	0.512
296.80	0.506
297.27	0.499
297.74	0.489
298.20	0.482
298.67	0.474
299.14	0.469
299.60	0.459
300.07	0.452
300.54	0.444
301.01	0.436
301.47	0.427
301.94	0.420
302.41	0.414
302.87	0.404
303.34	0.402
303.81	0.393
304.27	0.383
304.74	0.374
305.21	0.370
305.67	0.368
306.14	0.363
306.61	0.355
307.07	0.350
307.54	0.342
308.01	0.337
308.47	0.335
308.94	0.329
309.40	0.327
309.87	0.322
310.34	0.321
310.80	0.319
311.27	0.309
311.74	0.311
312.20	0.309
312.67	0.305
313.13	0.300
313.60	0.298
314.07	0.300
314.53	0.295
315.00	0.292
315.47	0.292
315.93	0.293
316.40	0.289
316.86	0.286
317.33	0.284
317.80	0.285
318.26	0.280
318.73	0.278
319.19	0.280
319.66	0.275
320.13	0.274
320.59	0.274
321.06	0.272
321.52	0.270
321.99	0.267
322.45	0.267
322.92	0.270
323.39	0.264
323.85	0.261
324.32	0.260
324.78	0.258
325.25	0.258
325.71	0.254
326.18	0.256
326.64	0.252
327.11	0.250
327.58	0.251
328.04	0.250
328.51	0.246
328.97	0.244
329.44	0.246
329.90	0.244
330.37	0.239
330.83	0.239
331.30	0.237
331.76	0.234
332.23	0.233
332.69	0.233
333.16	0.228
333.62	0.230
334.09	0.225
334.56	0.228
335.02	0.223
335.49	0.223
335.95	0.221
336.42	0.221
336.88	0.216
337.35	0.219
337.81	0.217
338.28	0.214
338.74	0.215
339.20	0.214
339.67	0.212
340.13	0.210
340.60	0.208
341.06	0.207
341.53	0.207
341.99	0.203
342.46	0.206
342.92	0.205
343.39	0.208
343.85	0.199
344.32	0.198
344.78	0.200
345.25	0.199
345.71	0.199
346.17	0.196
346.64	0.199
347.10	0.195
347.57	0.193
348.03	0.191
348.50	0.189
348.96	0.184
349.43	0.187
349.89	0.189
350.35	0.187
350.82	0.183
351.28	0.182
351.75	0.182
352.21	0.179
352.67	0.175
353.14	0.177
353.60	0.171
354.07	0.170
354.53	0.168
355.00	0.168
355.46	0.166
355.92	0.162
356.39	0.157
356.85	0.155
357.31	0.158
357.78	0.149
358.24	0.146
358.71	0.147
359.17	0.144
359.63	0.140
360.10	0.139
360.56	0.128
361.03	0.130
361.49	0.130
361.95	0.126
362.42	0.127
362.88	0.122
363.34	0.126
363.81	0.120
364.27	0.119
364.73	0.121
365.20	0.124
365.66	0.119
366.12	0.122
366.59	0.118
367.05	0.118
367.51	0.117
367.98	0.117
368.44	0.120
368.90	0.115
369.37	0.113
369.83	0.115
370.29	0.112
370.76	0.113
371.22	0.113
371.68	0.113
372.15	0.113
372.61	0.110
373.07	0.114
373.54	0.114
374.00	0.113
374.46	0.111
374.92	0.113
375.39	0.112
375.85	0.110
376.31	0.110
376.78	0.112
377.24	0.111
377.70	0.109
378.16	0.112
378.63	0.111
379.09	0.109
379.55	0.111
380.01	0.109
380.48	0.110
380.94	0.108
381.40	0.111
381.87	0.109
382.33	0.108
382.79	0.109
383.25	0.109
383.72	0.110
384.18	0.106
384.64	0.107
385.10	0.106
385.56	0.104
386.03	0.108
386.49	0.108
386.95	0.103
387.41	0.106
387.88	0.104
388.34	0.105
388.80	0.106
389.26	0.101
389.72	0.106
390.19	0.108
390.65	0.104
391.11	0.106
391.57	0.103
392.04	0.103
392.50	0.105
392.96	0.102
393.42	0.105
393.88	0.103
394.34	0.102
394.81	0.099
395.27	0.103
395.73	0.105
396.19	0.101
396.65	0.104
397.12	0.102
397.58	0.101
398.04	0.102
398.50	0.100
398.96	0.102
399.42	0.100
399.89	0.101
400.35	0.101
400.81	0.100
401.27	0.099
401.73	0.099
402.19	0.098
402.65	0.096
403.12	0.098
403.58	0.096
404.04	0.096
404.50	0.097
404.96	0.094
405.42	0.096
405.88	0.096
406.34	0.095
406.81	0.097
407.27	0.094
407.73	0.095
408.19	0.093
408.65	0.094
409.11	0.095
409.57	0.094
410.03	0.093
410.49	0.092
410.96	0.089
411.42	0.091
411.88	0.091
412.34	0.092
412.80	0.092
413.26	0.091
413.72	0.093
414.18	0.088
414.64	0.088
415.10	0.090
415.56	0.091
416.02	0.088
416.48	0.090
416.95	0.090
417.41	0.088
417.87	0.087
418.33	0.090
418.79	0.087
419.25	0.090
419.71	0.090
420.17	0.088
420.63	0.088
421.09	0.089
421.55	0.086
422.01	0.090
422.47	0.090
422.93	0.090
423.39	0.092
423.85	0.091
424.31	0.090
424.77	0.089
425.23	0.087
425.69	0.086
426.15	0.084
426.61	0.086
427.07	0.088
427.53	0.086
427.99	0.087
428.45	0.089
428.91	0.086
429.37	0.086
429.83	0.085
430.29	0.086
430.75	0.089
431.21	0.087
431.67	0.086
432.13	0.085
432.59	0.086
433.05	0.086
433.51	0.086
433.97	0.084
434.43	0.086
434.89	0.085
435.35	0.084
435.81	0.084
436.27	0.083
436.73	0.085
437.19	0.086
437.65	0.082
438.11	0.084
438.57	0.084
439.03	0.083
439.48	0.080
439.94	0.084
440.40	0.083
440.86	0.083
441.32	0.082
441.78	0.084
442.24	0.079
442.70	0.081
443.16	0.081
443.62	0.086
444.08	0.080
444.54	0.082
444.99	0.082
445.45	0.086
445.91	0.079
446.37	0.080
446.83	0.081
447.29	0.082
447.75	0.080
448.21	0.080
448.67	0.079
449.12	0.082
449.58	0.081
450.04	0.083
450.50	0.081
450.96	0.083
451.42	0.081
451.88	0.080
452.34	0.082
452.79	0.077
453.25	0.081
453.71	0.078
454.17	0.077
454.63	0.077
455.09	0.080
455.55	0.084
456.00	0.080
456.46	0.080
456.92	0.079
457.38	0.081
457.84	0.076
458.30	0.080
458.75	0.084
459.21	0.080
459.67	0.082
460.13	0.081
460.59	0.080
461.04	0.079
461.50	0.080
461.96	0.078
462.42	0.081
462.88	0.080
463.33	0.079
463.79	0.082
464.25	0.077
464.71	0.081
465.17	0.079
465.62	0.081
466.08	0.081
466.54	0.082
467.00	0.080
467.46	0.080
467.91	0.080
468.37	0.079
468.83	0.082
469.29	0.080
469.74	0.080
470.20	0.081
470.66	0.081
471.12	0.081
471.57	0.081
472.03	0.081
472.49	0.081
472.95	0.080
473.40	0.081
473.86	0.083
474.32	0.081
474.78	0.082
475.23	0.080
475.69	0.081
476.15	0.081
476.60	0.081
477.06	0.082
477.52	0.079
477.98	0.081
478.43	0.081
478.89	0.082
479.35	0.084
479.80	0.079
480.26	0.080
480.72	0.079
481.18	0.082
481.63	0.080
482.09	0.080
482.55	0.081
483.00	0.081
483.46	0.080
483.92	0.079
484.37	0.081
484.83	0.080
485.29	0.082
485.74	0.079
486.20	0.080
486.66	0.082
487.11	0.081
487.57	0.081
488.03	0.083
488.48	0.081
488.94	0.081
489.40	0.078
489.85	0.081
490.31	0.080
490.77	0.079
491.22	0.081
491.68	0.079
492.13	0.080
492.59	0.080
493.05	0.081
493.50	0.083
493.96	0.080
494.42	0.080
494.87	0.083
495.33	0.081
495.78	0.081
496.24	0.080
496.70	0.080
497.15	0.080
497.61	0.082
498.06	0.081
498.52	0.080
498.98	0.079
499.43	0.079
499.89	0.079
500.34	0.082
500.80	0.081
501.25	0.081
501.71	0.079
502.17	0.082
502.62	0.080
503.08	0.082
503.53	0.081
503.99	0.078
504.44	0.079
504.90	0.078
505.36	0.079
505.81	0.079
506.27	0.082
506.72	0.080
507.18	0.079
507.63	0.077
508.09	0.080
508.54	0.078
509.00	0.078
509.45	0.081
509.91	0.080
510.36	0.077
510.82	0.078
511.27	0.080
511.73	0.079
512.19	0.079
512.64	0.079
513.10	0.079
513.55	0.079
514.01	0.079
514.46	0.079
514.92	0.078
515.37	0.079
515.83	0.079
516.28	0.079
516.73	0.080
517.19	0.078
517.64	0.077
518.10	0.079
518.55	0.078
519.01	0.080
519.46	0.079
519.92	0.080
520.37	0.077
520.83	0.081
521.28	0.077
521.74	0.078
522.19	0.076
522.65	0.076
523.10	0.081
523.55	0.076
524.01	0.076
524.46	0.078
524.92	0.075
525.37	0.079
525.83	0.077
526.28	0.080
526.73	0.080
527.19	0.079
527.64	0.079
528.10	0.080
528.55	0.080
529.01	0.080
529.46	0.078
529.91	0.079
530.37	0.080
530.82	0.078
531.28	0.077
531.73	0.079
532.18	0.078
532.64	0.079
533.09	0.080
533.54	0.080
534.00	0.080
534.45	0.078
534.91	0.079
535.36	0.079
535.81	0.081
536.27	0.082
536.72	0.081
537.17	0.081
537.63	0.081
538.08	0.081
538.54	0.082
538.99	0.084
539.44	0.082
539.90	0.080
540.35	0.082
540.80	0.081
541.26	0.085
541.71	0.084
542.16	0.084
542.62	0.085
543.07	0.086
543.52	0.084
543.98	0.083
544.43	0.084
544.88	0.084
545.34	0.088
545.79	0.084
546.24	0.086
546.69	0.088
547.15	0.088
547.60	0.089
548.05	0.086
548.51	0.087
548.96	0.086
549.41	0.087
549.86	0.089
550.32	0.090
550.77	0.090
551.22	0.089
551.68	0.092
552.13	0.092
552.58	0.091
553.03	0.093
553.49	0.092
553.94	0.093
554.39	0.096
554.84	0.093
555.30	0.096
555.75	0.096
556.20	0.094
556.65	0.095
557.11	0.097
557.56	0.096
558.01	0.097
558.46	0.098
558.92	0.099
559.37	0.101
559.82	0.100
560.27	0.101
560.72	0.101
561.18	0.102
561.63	0.101
562.08	0.101
562.53	0.105
562.99	0.107
563.44	0.107
563.89	0.103
564.34	0.105
564.79	0.108
565.25	0.109
565.70	0.109
566.15	0.109
566.60	0.111
567.05	0.110
567.50	0.111
567.96	0.110
568.41	0.113
568.86	0.112
569.31	0.113
569.76	0.113
570.21	0.114
570.67	0.115
571.12	0.116
571.57	0.118
572.02	0.119
572.47	0.118
572.92	0.120
573.37	0.122
573.83	0.120
574.28	0.122
574.73	0.122
575.18	0.124
575.63	0.125
576.08	0.123
576.53	0.128
576.98	0.127
577.44	0.128
577.89	0.129
578.34	0.131
578.79	0.129
579.24	0.136
579.69	0.134
580.14	0.134
580.59	0.136
581.04	0.134
581.49	0.138
581.95	0.139
582.40	0.140
582.85	0.142
583.30	0.142
583.75	0.145
584.20	0.146
584.65	0.147
585.10	0.149
585.55	0.149
586.00	0.151
586.45	0.152
586.90	0.155
587.35	0.156
587.80	0.157
588.25	0.160
588.71	0.162
589.16	0.163
589.61	0.165
590.06	0.165
590.51	0.168
590.96	0.170
591.41	0.172
591.86	0.171
592.31	0.176
592.76	0.177
593.21	0.178
593.66	0.181
594.11	0.184
594.56	0.183
595.01	0.186
595.46	0.189
595.91	0.192
596.36	0.192
596.81	0.193
597.26	0.196
597.71	0.196
598.16	0.199
598.61	0.201
599.06	0.203
599.51	0.205
599.96	0.210
600.41	0.213
600.86	0.210
601.31	0.209
601.76	0.216
602.21	0.214
602.65	0.218
603.10	0.220
603.55	0.222
604.00	0.223
604.45	0.226
604.90	0.229
605.35	0.228
605.80	0.232
606.25	0.236
606.70	0.234
607.15	0.234
607.60	0.235
608.05	0.238
608.50	0.240
608.95	0.241
609.39	0.244
609.84	0.247
610.29	0.247
610.74	0.245
611.19	0.250
611.64	0.251
612.09	0.252
612.54	0.252
612.99	0.251
613.44	0.253
613.88	0.254
614.33	0.256
614.78	0.253
615.23	0.258
615.68	0.258
616.13	0.259
616.58	0.260
617.03	0.258
617.47	0.260
617.92	0.261
618.37	0.262
618.82	0.264
619.27	0.264
619.72	0.262
620.17	0.264
620.61	0.264
621.06	0.265
621.51	0.268
621.96	0.267
622.41	0.267
622.86	0.269
623.30	0.267
623.75	0.270
624.20	0.270
624.65	0.271
625.10	0.273
625.54	0.272
625.99	0.271
626.44	0.277
626.89	0.275
627.34	0.278
627.78	0.279
628.23	0.280
628.68	0.281
629.13	0.280
629.58	0.282
630.02	0.285
630.47	0.286
630.92	0.286
631.37	0.288
631.81	0.290
632.26	0.290
632.71	0.293
633.16	0.295
633.61	0.297
634.05	0.300
634.50	0.297
634.95	0.304
635.40	0.307
635.84	0.306
636.29	0.311
636.74	0.311
637.18	0.317
637.63	0.317
638.08	0.320
638.53	0.324
638.97	0.324
639.42	0.328
639.87	0.329
640.32	0.333
640.76	0.334
641.21	0.337
641.66	0.340
642.10	0.342
642.55	0.347
643.00	0.349
643.44	0.354
643.89	0.355
644.34	0.358
644.79	0.364
645.23	0.366
645.68	0.370
646.13	0.373
646.57	0.375
647.02	0.378
647.47	0.384
647.91	0.384
648.36	0.390
648.81	0.390
649.25	0.390
649.70	0.396
650.15	0.400
650.59	0.404
651.04	0.407
651.48	0.406
651.93	0.410
652.38	0.413
652.82	0.415
653.27	0.420
653.72	0.423
654.16	0.424
654.61	0.427
655.06	0.429
655.50	0.429
655.95	0.431
656.39	0.436
656.84	0.437
657.29	0.437
657.73	0.438
658.18	0.444
658.62	0.447
659.07	0.445
659.52	0.449
659.96	0.451
660.41	0.450
660.85	0.453
661.30	0.455
661.74	0.453
662.19	0.456
662.64	0.456
663.08	0.459
663.53	0.460
663.97	0.459
664.42	0.459
664.86	0.457
665.31	0.460
665.75	0.459
666.20	0.455
666.65	0.456
667.09	0.456
667.54	0.456
667.98	0.451
668.43	0.451
668.87	0.447
669.32	0.446
669.76	0.443
670.21	0.435
670.65	0.437
671.10	0.433
671.54	0.425
671.99	0.420
672.43	0.415
672.88	0.412
673.32	0.408
673.77	0.396
674.21	0.395
674.66	0.387
675.10	0.380
675.55	0.372
675.99	0.368
676.44	0.359
676.88	0.352
677.33	0.347
677.77	0.337
678.22	0.327
678.66	0.323
679.11	0.314
679.55	0.304
679.99	0.296
680.44	0.292
680.88	0.283
681.33	0.273
681.77	0.266
682.22	0.257
682.66	0.250
683.11	0.244
683.55	0.234
683.99	0.227
684.44	0.221
684.88	0.216
685.33	0.205
685.77	0.197
686.21	0.194
686.66	0.186
687.10	0.181
687.55	0.174
687.99	0.167
688.44	0.161
688.88	0.158
689.32	0.152
689.77	0.148
690.21	0.142
690.65	0.140
691.10	0.133
691.54	0.127
691.99	0.124
692.43	0.120
692.87	0.116
693.32	0.112
693.76	0.109
694.20	0.109
694.65	0.104
695.09	0.101
695.53	0.097
695.98	0.095
696.42	0.094
696.86	0.087
697.31	0.086
697.75	0.086
698.19	0.083
698.64	0.080
699.08	0.080
699.52	0.076
699.97	0.076
700.41	0.074
700.85	0.073
701.30	0.071
701.74	0.069
702.18	0.069
702.63	0.067
703.07	0.066
703.51	0.066
703.96	0.065
704.40	0.061
704.84	0.060
705.28	0.059
705.73	0.058
706.17	0.060
706.61	0.056
707.06	0.057
707.50	0.056
707.94	0.053
708.38	0.054
708.83	0.055
709.27	0.053
709.71	0.053
710.15	0.054
710.60	0.053
711.04	0.055
711.48	0.050
711.92	0.053
712.37	0.050
712.81	0.048
713.25	0.048
713.69	0.051
714.13	0.047
714.58	0.047
715.02	0.048
715.46	0.048
715.90	0.048
716.35	0.049
716.79	0.046
717.23	0.047
717.67	0.050
718.11	0.048
718.56	0.047
719.00	0.046
719.44	0.048
719.88	0.048
720.32	0.045
720.76	0.047
721.21	0.045
721.65	0.047
722.09	0.049
722.53	0.048
722.97	0.047
723.41	0.046
723.86	0.049
724.30	0.046
724.74	0.046
725.18	0.046
725.62	0.048
726.06	0.047
726.50	0.049
726.95	0.047
727.39	0.047
727.83	0.047
728.27	0.046
728.71	0.047
729.15	0.048
729.59	0.045
730.03	0.047
730.48	0.051
730.92	0.047
731.36	0.045
731.80	0.046
732.24	0.048
732.68	0.050
733.12	0.048
733.56	0.051
734.00	0.049
734.44	0.049
734.89	0.049
735.33	0.051
735.77	0.051
736.21	0.046
736.65	0.049
737.09	0.049
737.53	0.051
737.97	0.053
738.41	0.048
738.85	0.052
739.29	0.051
739.73	0.048
740.17	0.049
740.61	0.050
741.05	0.049
741.49	0.049
741.93	0.046
742.37	0.048
742.81	0.048
743.26	0.049
743.70	0.049
744.14	0.052
744.58	0.050
745.02	0.050
745.46	0.051
745.90	0.050
746.34	0.050
746.78	0.049
747.22	0.046
747.66	0.050
748.10	0.048
748.54	0.047
748.98	0.048
749.42	0.049
749.86	0.052
750.29	0.049
750.73	0.050
751.17	0.048
751.61	0.048
752.05	0.047
752.49	0.047
752.93	0.045
753.37	0.047
753.81	0.049
754.25	0.045
754.69	0.047
755.13	0.047
755.57	0.048
756.01	0.048
756.45	0.045
756.89	0.050
757.33	0.050
757.77	0.046
758.21	0.049
758.64	0.047
759.08	0.046
759.52	0.048
759.96	0.045
760.40	0.048
760.84	0.048
761.28	0.046
761.72	0.045
762.16	0.049
762.60	0.049
763.03	0.048
763.47	0.045
763.91	0.049
764.35	0.049
764.79	0.048
765.23	0.044
765.67	0.049
766.11	0.048
766.54	0.046
766.98	0.047
767.42	0.047
767.86	0.047
768.30	0.044
768.74	0.047
769.17	0.048
769.61	0.049
770.05	0.047
770.49	0.046
770.93	0.049
771.37	0.046
771.80	0.046
772.24	0.048
772.68	0.047
773.12	0.047
773.56	0.046
774.00	0.046
774.43	0.048
774.87	0.045
775.31	0.046
775.75	0.046
776.19	0.045
776.62	0.048
777.06	0.044
777.50	0.045
777.94	0.049
778.37	0.047
778.81	0.044
779.25	0.048
779.69	0.046
780.13	0.046
780.56	0.046
781.00	0.045
781.44	0.044
781.88	0.045
782.31	0.047
782.75	0.048
783.19	0.048
783.63	0.046
784.06	0.046
784.50	0.046
784.94	0.047
785.37	0.046
785.81	0.047
786.25	0.046
786.69	0.048
787.12	0.047
787.56	0.046
788.00	0.045
788.43	0.047
788.87	0.044
789.31	0.048
789.75	0.048
790.18	0.047
790.62	0.048
791.06	0.046
791.49	0.042
791.93	0.045
792.37	0.044
792.80	0.046
793.24	0.047
793.68	0.047
794.11	0.048
794.55	0.046
794.99	0.045
795.42	0.041
795.86	0.047
796.30	0.046
796.73	0.047
797.17	0.047
797.61	0.045
798.04	0.045
798.48	0.046
798.91	0.047
799.35	0.046
799.79	0.046
800.22	0.041
800.66	0.044
801.10	0.045
801.53	0.051
801.97	0.049
802.40	0.046
802.84	0.045
803.28	0.046
803.71	0.046
804.15	0.049
804.58	0.047
805.02	0.042
805.46	0.047
805.89	0.048
806.33	0.041
806.76	0.045
807.20	0.042
807.63	0.043
808.07	0.042
808.51	0.040
808.94	0.046
809.38	0.047
809.81	0.044
810.25	0.047
810.68	0.046
811.12	0.043
811.55	0.045
811.99	0.045
812.42	0.044
812.86	0.046
813.29	0.047
813.73	0.044
814.17	0.047
814.60	0.045
815.04	0.046
815.47	0.043
815.91	0.042
816.34	0.047
816.78	0.044
817.21	0.040
817.65	0.045
818.08	0.048
818.52	0.050
818.95	0.045
819.39	0.042
819.82	0.044
820.25	0.045
820.69	0.044
821.12	0.043
821.56	0.046
821.99	0.041
822.43	0.046
822.86	0.043
823.30	0.046
823.73	0.045
824.17	0.044
824.60	0.048
825.04	0.044
825.47	0.043
825.90	0.048
826.34	0.044
826.77	0.046
827.21	0.048
827.64	0.046
828.08	0.049
828.51	0.044
828.94	0.045
829.38	0.049
829.81	0.051
830.25	0.048
830.68	0.054
831.11	0.047
831.55	0.054
831.98	0.049
832.42	0.050
832.85	0.053
833.28	0.051
833.72	0.051
834.15	0.057
834.58	0.053
835.02	0.050
835.45	0.049
835.88	0.046
836.32	0.051
836.75	0.051
837.19	0.051
837.62	0.049
838.05	0.050
838.49	0.055
838.92	0.054
839.35	0.056
839.79	0.054
840.22	0.053
840.65	0.052
841.09	0.048
841.52	0.052
841.95	0.054
842.39	0.053
842.82	0.053
843.25	0.054
843.68	0.060
844.12	0.053
844.55	0.052
844.98	0.059
845.42	0.052
845.85	0.050
846.28	0.054
846.71	0.055
847.15	0.054
847.58	0.062
848.01	0.048
848.45	0.059
848.88	0.055
849.31	0.053
849.74	0.051
850.18	0.058
850.61	0.051
851.04	0.057
851.47	0.054
851.91	0.059
852.34	0.059
852.77	0.057
853.20	0.060
853.64	0.052
854.07	0.052
854.50	0.055
854.93	0.060
855.36	0.045
855.80	0.053
856.23	0.053
856.66	0.053
857.09	0.062
857.52	0.056
857.96	0.054
858.39	0.057
858.82	0.054
859.25	0.055
859.68	0.058
860.12	0.051
860.55	0.061
860.98	0.058
861.41	0.054
861.84	0.055
862.27	0.055
862.71	0.064
863.14	0.054
863.57	0.054
864.00	0.058
864.43	0.064
864.86	0.051
865.30	0.059
865.73	0.065
866.16	0.059
866.59	0.062
867.02	0.059
867.45	0.055
867.88	0.058
868.31	0.058
868.75	0.063
869.18	0.064
869.61	0.057
870.04	0.061
870.47	0.061
870.90	0.061
871.33	0.058
871.76	0.058
872.19	0.061
872.62	0.057
873.06	0.055
873.49	0.065
873.92	0.059
874.35	0.061
874.78	0.066
875.21	0.063
875.64	0.053
876.07	0.065
876.50	0.063
876.93	0.062
877.36	0.065
877.79	0.065
878.22	0.069
878.65	0.064
879.08	0.064
879.51	0.063
879.94	0.061
880.37	0.059
880.80	0.066
881.23	0.068
881.67	0.058
882.10	0.060
882.53	0.068
882.96	0.060
883.39	0.068
883.82	0.062
884.25	0.062
884.68	0.068
885.11	0.060
885.54	0.068
885.97	0.063
886.39	0.062
886.82	0.069
887.25	0.066
887.68	0.068
888.11	0.069
888.54	0.066
888.97	0.065
889.40	0.064
889.83	0.068
890.26	0.066
890.69	0.071
891.12	0.068
891.55	0.070
891.98	0.064
892.41	0.071
892.84	0.073
893.27	0.065
893.70	0.067
894.13	0.073
894.56	0.065
894.98	0.071
895.41	0.070
895.84	0.069
896.27	0.072
896.70	0.076
897.13	0.076
897.56	0.072
897.99	0.066
898.42	0.072
898.85	0.074
899.27	0.066
899.70	0.070
900.13	0.071
900.56	0.068
900.99	0.074
901.42	0.073
901.85	0.075
902.28	0.075
902.70	0.069
903.13	0.073
903.56	0.072
903.99	0.069
904.42	0.069
904.85	0.072
905.27	0.073
905.70	0.075
906.13	0.072
906.56	0.073
906.99	0.077
907.42	0.073
907.84	0.073
908.27	0.072
908.70	0.072
909.13	0.073
909.56	0.082
909.98	0.068
910.41	0.074
910.84	0.072
911.27	0.074
911.70	0.079
912.12	0.070
912.55	0.072
912.98	0.072
913.41	0.068
913.84	0.075
914.26	0.073
914.69	0.070
915.12	0.075
915.55	0.068
915.97	0.071
916.40	0.074
916.83	0.071
917.26	0.080
917.68	0.077
918.11	0.071
918.54	0.074
918.97	0.075
919.39	0.074
919.82	0.079
920.25	0.073
920.67	0.070
921.10	0.079
921.53	0.076
921.96	0.077
922.38	0.078
922.81	0.076
923.24	0.078
923.66	0.081
924.09	0.078
924.52	0.083
924.94	0.081
925.37	0.079
925.80	0.080
926.22	0.082
926.65	0.083
927.08	0.085
927.50	0.084
927.93	0.091
928.36	0.086
928.78	0.080
929.21	0.089
929.64	0.086
930.06	0.084
930.49	0.087
930.92	0.089
931.34	0.092
931.77	0.091
932.20	0.091
932.62	0.094
933.05	0.093
933.47	0.095
933.90	0.100
934.33	0.096
934.75	0.098
935.18	0.103
935.61	0.102
936.03	0.105
936.46	0.107
936.88	0.104
937.31	0.110
937.73	0.110
938.16	0.114
938.59	0.111
939.01	0.115
939.44	0.116
939.86	0.115
940.29	0.115
940.71	0.124
941.14	0.119
941.57	0.121
941.99	0.129
942.42	0.135
942.84	0.135
943.27	0.143
943.69	0.135
944.12	0.131
944.54	0.146
944.97	0.147
945.39	0.142
945.82	0.146
946.24	0.146
946.67	0.155
947.09	0.148
947.52	0.151
947.94	0.159
948.37	0.159
948.79	0.159
949.22	0.167
949.64	0.165
950.07	0.152
950.49	0.169
950.92	0.170
951.34	0.171
951.77	0.183
952.19	0.180
952.62	0.184
953.04	0.186
953.47	0.187
953.89	0.197
954.32	0.189
954.74	0.198
955.17	0.204
955.59	0.198
956.01	0.213
956.44	0.211
956.86	0.205
957.29	0.219
957.71	0.210
958.14	0.216
958.56	0.216
958.98	0.226
959.41	0.216
959.83	0.226
960.26	0.217
960.68	0.222
961.10	0.226
961.53	0.225
961.95	0.233
962.38	0.230
962.80	0.226
963.22	0.237
963.65	0.237
964.07	0.229
964.50	0.240
964.92	0.237
965.34	0.238
965.77	0.238
966.19	0.235
966.61	0.245
967.04	0.237
967.46	0.235
967.88	0.246
968.31	0.239
968.73	0.235
969.15	0.251
969.58	0.244
970.00	0.242
970.42	0.249
970.85	0.239
971.27	0.250
971.69	0.242
972.12	0.246
972.54	0.250
972.96	0.244
973.39	0.241
973.81	0.250
974.23	0.252
974.65	0.249
975.08	0.248
975.50	0.241
975.92	0.249
976.35	0.242
976.77	0.246
977.19	0.252
977.61	0.240
978.04	0.242
978.46	0.251
978.88	0.252
979.30	0.245
979.73	0.259
980.15	0.245
980.57	0.250
980.99	0.244
981.42	0.245
981.84	0.254
982.26	0.247
982.68	0.246
983.11	0.245
983.53	0.254
983.95	0.240
984.37	0.246
984.79	0.246
985.22	0.241
985.64	0.253
986.06	0.236
986.48	0.246
986.90	0.242
987.33	0.240
987.75	0.238
988.17	0.246
988.59	0.230
989.01	0.240
989.43	0.239
989.86	0.237
990.28	0.235
990.70	0.230
991.12	0.242
991.54	0.236
991.96	0.235
992.39	0.238
992.81	0.236
993.23	0.231
993.65	0.239
994.07	0.222
994.49	0.226
994.91	0.231
995.34	0.230
995.76	0.231
996.18	0.231
996.60	0.225
997.02	0.232
997.44	0.225
997.86	0.227
998.28	0.220
998.70	0.228
999.12	0.233
999.55	0.229
999.97	0.228
1000.39	0.226
1000.81	0.227
1001.23	0.221
1001.65	0.215
1002.07	0.216
1002.49	0.204
1002.91	0.220
1003.33	0.210
1003.75	0.212
1004.17	0.215
1004.59	0.216
1005.01	0.216
1005.43	0.219
1005.85	0.203
1006.28	0.206
1006.70	0.198
1007.12	0.202
1007.54	0.214
1007.96	0.210
1008.38	0.202
1008.80	0.199
1009.22	0.212
1009.64	0.206
1010.06	0.204
1010.48	0.196
1010.90	0.209
1011.32	0.197
1011.74	0.193
1012.16	0.196
1012.58	0.199
1013.00	0.189
1013.42	0.194
1013.84	0.185
1014.26	0.189
1014.67	0.192
1015.09	0.183
1015.51	0.183
1015.93	0.185
1016.35	0.189
1016.77	0.195
1017.19	0.184
1017.61	0.174
1018.03	0.186
1018.45	0.180
1018.87	0.184
1019.29	0.182
1019.71	0.177
1020.13	0.178
1020.55	0.180
1020.97	0.161
1021.38	0.178
1021.80	0.185
1022.22	0.180
1022.64	0.181
1023.06	0.165
1023.48	0.170
1023.90	0.173
1024.32	0.153
1024.74	0.166
1025.15	0.153
1025.57	0.160
1025.99	0.167
1026.41	0.169
1026.83	0.145
1027.25	0.168
1027.67	0.163
1028.08	0.157
1028.50	0.162
1028.92	0.136
1029.34	0.149
1029.76	0.151
1030.18	0.156
1030.60	0.147
1031.01	0.154
1031.43	0.139
1031.85	0.155
1032.27	0.156
1032.69	0.136
1033.10	0.152
1033.52	0.131
1033.94	0.140
1034.36	0.137
1034.78	0.139
1035.19	0.138
1035.61	0.163
1036.03	0.134
1036.45	0.149
1036.87	0.127
1037.28	0.128
1037.70	0.151
1038.12	0.121
1038.54	0.138
1038.95	0.122
1039.37	0.124
1039.79	0.130
1040.21	0.124
1040.62	0.129
1041.04	0.145
1041.46	0.114
1041.88	0.103
1042.29	0.132
1042.71	0.118
1043.13	0.132
1043.55	0.117
1043.96	0.108
1044.38	0.151
1044.80	0.138
1045.21	0.124
1045.63	0.121
1046.05	0.127
1046.47	0.103
1046.88	0.127
1047.30	0.099
1047.72	0.134
1048.13	0.130
1048.55	0.115
1048.97	0.127
1049.38	0.109
1049.80	0.101
1050.22	0.136
1050.63	0.109
1051.05	0.092
1051.47	0.137
1051.88	0.103
1052.30	0.117
1052.72	0.137
1053.13	0.093
1053.55	0.122
1053.97	0.110
1054.38	0.107
1054.80	0.120
1055.21	0.126
1055.63	0.098
1056.05	0.166
1056.46	0.102
1056.88	0.161
1057.29	0.121
1057.71	0.101
1058.13	0.121
1058.54	0.122
1058.96	0.081
1059.37	0.147
1059.79	0.152
1060.21	0.081
1060.62	0.133
1061.04	0.109
1061.45	0.162
1061.87	0.123
1062.28	0.118
1062.70	0.196
1063.12	0.117
1063.53	0.103
1063.95	0.152
1064.36	0.125
1064.78	0.084
1065.19	0.115
1065.61	0.131
1066.02	0.133
1066.44	0.159
1066.85	0.076
1067.27	0.180
1067.68	0.091
1068.10	0.078
1068.51	0.099
1068.93	0.129
1069.35	0.096
1069.76	0.229
1070.17	0.240
1070.59	0.208
1071.00	0.264
1071.42	0.197
1071.83	0.298
1072.25	0.221
1072.66	0.156
1073.08	0.279
1073.49	0.332
1073.91	0.088
1074.32	0.207
1074.74	0.255
1075.15	0.104
1075.57	0.304
1075.98	0.092
1076.40	0.254
1076.81	0.084
1077.22	0.133
1077.64	0.141
1078.05	0.274
1078.47	0.070
1078.88	0.337
1079.30	0.088
1079.71	0.122
1080.12	0.460
1080.54	0.113
1080.95	0.121
1081.37	0.037
1081.78	0.118
1082.19	0.429
1082.61	0.202
1083.02	0.430
1083.44	0.452
1083.85	0.379
1084.26	0.083
1084.68	1.248
1085.09	0.093
1085.50	0.557
1085.92	0.050
1086.33	0.011
1086.74	0.658
1087.16	0.417
1087.57	0.111
1087.98	0.714
1088.40	0.149
1088.81	0.056
1089.22	-0.000
1089.64	0.736
1090.05	0.338
1090.46	0.069
1090.88	0.036
1091.29	0.550
1091.70	0.424
1092.12	0.154
1092.53	1.190
1092.94	1.063
1093.36	0.029
1093.77	-0.000
1094.18	0.149
1094.59	0.123
1095.01	0.472
1095.42	-0.096
1095.83	0.331
1096.25	0.591
1096.66	-0.208
1097.07	0.993
1097.48	0.458
1097.90	-0.099
1098.31	-0.000
1098.72	0.277
1099.13	0.495
>>>>>End Processed Spectral Data<<<<<
