SpectraSuite Data File
++++++++++++++++++++++++++++++++++++
Date: Tue Jul 11 14:47:59 CEST 2017
User: IPCE
Dark Spectrum Present: Yes
Reference Spectrum Present: Yes
Number of Sampled Component Spectra: 1
Spectrometers: HR+C0708
Integration Time (usec): 1000 (HR+C0708)
Spectra Averaged: 10 (HR+C0708)
Boxcar Smoothing: 0 (HR+C0708)
Correct for Electrical Dark: No (HR+C0708)
Strobe/Lamp Enabled: No (HR+C0708)
Correct for Detector Non-linearity: No (HR+C0708)
Correct for Stray Light: No (HR+C0708)
Number of Pixels in Processed Spectrum: 2048
>>>>>Begin Processed Spectral Data<<<<<
188.76	0.340
189.23	0.936
189.70	0.301
190.17	-0.000
190.64	0.158
191.12	0.114
191.59	0.403
192.06	0.155
192.53	-0.000
193.01	0.939
193.48	-0.000
193.95	-0.272
194.42	0.120
194.90	0.214
195.37	-0.000
195.84	-0.000
196.31	0.346
196.78	-0.000
197.26	0.546
197.73	0.668
198.20	-0.098
198.67	-0.000
199.14	-0.117
199.62	-0.018
200.09	0.315
200.56	0.398
201.03	0.361
201.50	0.349
201.97	0.459
202.45	0.393
202.92	0.399
203.39	0.604
203.86	0.364
204.33	0.353
204.80	0.435
205.28	0.334
205.75	0.388
206.22	0.467
206.69	0.525
207.16	0.415
207.63	0.336
208.11	0.338
208.58	0.556
209.05	0.669
209.52	0.388
209.99	0.366
210.46	0.448
210.93	0.456
211.41	0.378
211.88	0.310
212.35	0.430
212.82	0.369
213.29	0.518
213.76	0.361
214.23	0.397
214.70	0.427
215.18	0.589
215.65	0.602
216.12	0.410
216.59	0.525
217.06	0.444
217.53	0.481
218.00	0.242
218.47	0.506
218.94	0.472
219.41	0.429
219.89	0.532
220.36	0.487
220.83	0.510
221.30	0.440
221.77	0.503
222.24	0.419
222.71	0.503
223.18	0.476
223.65	0.642
224.12	0.667
224.59	0.526
225.06	0.570
225.54	0.720
226.01	0.606
226.48	0.676
226.95	0.818
227.42	0.923
227.89	0.924
228.36	1.051
228.83	0.933
229.30	1.259
229.77	1.037
230.24	1.501
230.71	1.267
231.18	1.181
231.65	1.242
232.12	1.184
232.59	1.256
233.06	1.378
233.53	1.497
234.00	1.330
234.47	1.695
234.94	1.587
235.41	1.585
235.88	1.655
236.35	1.691
236.82	1.805
237.29	1.921
237.76	1.800
238.23	1.959
238.70	1.895
239.17	1.983
239.64	2.177
240.11	1.955
240.58	1.965
241.05	2.041
241.52	2.148
241.99	2.028
242.46	2.130
242.93	2.147
243.40	2.150
243.87	2.190
244.34	2.215
244.81	2.264
245.28	2.216
245.75	2.220
246.22	2.152
246.69	2.248
247.16	2.256
247.63	2.298
248.10	2.376
248.57	2.176
249.04	2.350
249.51	2.143
249.98	2.305
250.45	2.184
250.92	2.076
251.39	2.133
251.85	2.003
252.32	1.871
252.79	1.750
253.26	1.682
253.73	1.597
254.20	1.494
254.67	1.399
255.14	1.331
255.61	1.281
256.08	1.217
256.55	1.171
257.02	1.115
257.49	1.079
257.95	1.045
258.42	1.012
258.89	0.986
259.36	0.955
259.83	0.928
260.30	0.905
260.77	0.889
261.24	0.860
261.71	0.848
262.17	0.826
262.64	0.814
263.11	0.806
263.58	0.787
264.05	0.776
264.52	0.757
264.99	0.749
265.46	0.738
265.92	0.728
266.39	0.715
266.86	0.707
267.33	0.700
267.80	0.686
268.27	0.682
268.74	0.674
269.20	0.664
269.67	0.655
270.14	0.649
270.61	0.644
271.08	0.635
271.55	0.627
272.01	0.623
272.48	0.618
272.95	0.613
273.42	0.608
273.89	0.602
274.36	0.595
274.82	0.593
275.29	0.585
275.76	0.581
276.23	0.581
276.70	0.572
277.16	0.571
277.63	0.565
278.10	0.562
278.57	0.558
279.04	0.557
279.50	0.559
279.97	0.554
280.44	0.548
280.91	0.547
281.38	0.545
281.84	0.546
282.31	0.539
282.78	0.542
283.25	0.537
283.72	0.536
284.18	0.536
284.65	0.540
285.12	0.534
285.59	0.533
286.05	0.535
286.52	0.535
286.99	0.531
287.46	0.532
287.92	0.529
288.39	0.533
288.86	0.531
289.33	0.530
289.79	0.529
290.26	0.525
290.73	0.524
291.20	0.526
291.66	0.524
292.13	0.514
292.60	0.513
293.07	0.511
293.53	0.507
294.00	0.502
294.47	0.498
294.93	0.493
295.40	0.486
295.87	0.479
296.34	0.476
296.80	0.470
297.27	0.463
297.74	0.457
298.20	0.450
298.67	0.445
299.14	0.441
299.60	0.434
300.07	0.422
300.54	0.415
301.01	0.411
301.47	0.402
301.94	0.395
302.41	0.394
302.87	0.382
303.34	0.379
303.81	0.370
304.27	0.366
304.74	0.357
305.21	0.351
305.67	0.351
306.14	0.347
306.61	0.339
307.07	0.333
307.54	0.331
308.01	0.325
308.47	0.324
308.94	0.320
309.40	0.316
309.87	0.311
310.34	0.309
310.80	0.306
311.27	0.303
311.74	0.300
312.20	0.298
312.67	0.295
313.13	0.292
313.60	0.289
314.07	0.289
314.53	0.287
315.00	0.283
315.47	0.283
315.93	0.285
316.40	0.282
316.86	0.280
317.33	0.279
317.80	0.274
318.26	0.276
318.73	0.274
319.19	0.277
319.66	0.274
320.13	0.268
320.59	0.270
321.06	0.268
321.52	0.265
321.99	0.267
322.45	0.260
322.92	0.265
323.39	0.259
323.85	0.260
324.32	0.256
324.78	0.256
325.25	0.256
325.71	0.251
326.18	0.255
326.64	0.251
327.11	0.254
327.58	0.248
328.04	0.247
328.51	0.249
328.97	0.246
329.44	0.248
329.90	0.243
330.37	0.240
330.83	0.241
331.30	0.238
331.76	0.240
332.23	0.236
332.69	0.236
333.16	0.233
333.62	0.231
334.09	0.232
334.56	0.229
335.02	0.227
335.49	0.226
335.95	0.226
336.42	0.225
336.88	0.219
337.35	0.220
337.81	0.219
338.28	0.215
338.74	0.215
339.20	0.217
339.67	0.214
340.13	0.212
340.60	0.214
341.06	0.212
341.53	0.209
341.99	0.208
342.46	0.209
342.92	0.207
343.39	0.209
343.85	0.200
344.32	0.202
344.78	0.203
345.25	0.203
345.71	0.203
346.17	0.202
346.64	0.204
347.10	0.202
347.57	0.200
348.03	0.197
348.50	0.195
348.96	0.196
349.43	0.194
349.89	0.199
350.35	0.195
350.82	0.195
351.28	0.188
351.75	0.194
352.21	0.189
352.67	0.190
353.14	0.191
353.60	0.186
354.07	0.180
354.53	0.184
355.00	0.183
355.46	0.183
355.92	0.183
356.39	0.180
356.85	0.179
357.31	0.182
357.78	0.177
358.24	0.172
358.71	0.177
359.17	0.171
359.63	0.174
360.10	0.176
360.56	0.167
361.03	0.167
361.49	0.169
361.95	0.166
362.42	0.167
362.88	0.165
363.34	0.167
363.81	0.163
364.27	0.162
364.73	0.163
365.20	0.163
365.66	0.165
366.12	0.163
366.59	0.159
367.05	0.161
367.51	0.160
367.98	0.157
368.44	0.161
368.90	0.156
369.37	0.156
369.83	0.158
370.29	0.157
370.76	0.155
371.22	0.156
371.68	0.157
372.15	0.156
372.61	0.155
373.07	0.158
373.54	0.153
374.00	0.157
374.46	0.156
374.92	0.154
375.39	0.156
375.85	0.153
376.31	0.155
376.78	0.154
377.24	0.152
377.70	0.151
378.16	0.153
378.63	0.155
379.09	0.151
379.55	0.153
380.01	0.149
380.48	0.151
380.94	0.153
381.40	0.151
381.87	0.150
382.33	0.150
382.79	0.151
383.25	0.150
383.72	0.150
384.18	0.148
384.64	0.150
385.10	0.148
385.56	0.149
386.03	0.149
386.49	0.150
386.95	0.147
387.41	0.148
387.88	0.145
388.34	0.146
388.80	0.148
389.26	0.146
389.72	0.149
390.19	0.148
390.65	0.145
391.11	0.147
391.57	0.145
392.04	0.143
392.50	0.146
392.96	0.148
393.42	0.145
393.88	0.146
394.34	0.145
394.81	0.144
395.27	0.146
395.73	0.147
396.19	0.142
396.65	0.146
397.12	0.142
397.58	0.141
398.04	0.143
398.50	0.145
398.96	0.146
399.42	0.146
399.89	0.145
400.35	0.143
400.81	0.142
401.27	0.139
401.73	0.140
402.19	0.138
402.65	0.139
403.12	0.139
403.58	0.139
404.04	0.138
404.50	0.139
404.96	0.136
405.42	0.137
405.88	0.137
406.34	0.138
406.81	0.137
407.27	0.135
407.73	0.136
408.19	0.133
408.65	0.135
409.11	0.135
409.57	0.137
410.03	0.132
410.49	0.131
410.96	0.131
411.42	0.132
411.88	0.133
412.34	0.131
412.80	0.132
413.26	0.131
413.72	0.134
414.18	0.130
414.64	0.129
415.10	0.132
415.56	0.130
416.02	0.127
416.48	0.130
416.95	0.130
417.41	0.130
417.87	0.129
418.33	0.129
418.79	0.129
419.25	0.127
419.71	0.128
420.17	0.130
420.63	0.130
421.09	0.128
421.55	0.128
422.01	0.128
422.47	0.130
422.93	0.129
423.39	0.131
423.85	0.130
424.31	0.129
424.77	0.129
425.23	0.128
425.69	0.125
426.15	0.126
426.61	0.129
427.07	0.129
427.53	0.126
427.99	0.128
428.45	0.129
428.91	0.125
429.37	0.126
429.83	0.128
430.29	0.130
430.75	0.129
431.21	0.125
431.67	0.126
432.13	0.122
432.59	0.126
433.05	0.123
433.51	0.125
433.97	0.124
434.43	0.128
434.89	0.125
435.35	0.121
435.81	0.123
436.27	0.122
436.73	0.126
437.19	0.124
437.65	0.120
438.11	0.121
438.57	0.124
439.03	0.121
439.48	0.123
439.94	0.123
440.40	0.120
440.86	0.118
441.32	0.118
441.78	0.120
442.24	0.121
442.70	0.122
443.16	0.121
443.62	0.124
444.08	0.116
444.54	0.119
444.99	0.118
445.45	0.120
445.91	0.117
446.37	0.118
446.83	0.118
447.29	0.122
447.75	0.119
448.21	0.117
448.67	0.115
449.12	0.120
449.58	0.117
450.04	0.118
450.50	0.117
450.96	0.119
451.42	0.119
451.88	0.116
452.34	0.119
452.79	0.113
453.25	0.116
453.71	0.117
454.17	0.114
454.63	0.113
455.09	0.117
455.55	0.119
456.00	0.114
456.46	0.113
456.92	0.113
457.38	0.117
457.84	0.112
458.30	0.116
458.75	0.116
459.21	0.113
459.67	0.114
460.13	0.112
460.59	0.115
461.04	0.114
461.50	0.113
461.96	0.116
462.42	0.115
462.88	0.113
463.33	0.114
463.79	0.116
464.25	0.113
464.71	0.114
465.17	0.114
465.62	0.117
466.08	0.116
466.54	0.117
467.00	0.117
467.46	0.114
467.91	0.114
468.37	0.116
468.83	0.117
469.29	0.115
469.74	0.115
470.20	0.115
470.66	0.117
471.12	0.115
471.57	0.115
472.03	0.114
472.49	0.115
472.95	0.115
473.40	0.114
473.86	0.115
474.32	0.117
474.78	0.115
475.23	0.115
475.69	0.114
476.15	0.115
476.60	0.117
477.06	0.116
477.52	0.115
477.98	0.115
478.43	0.115
478.89	0.116
479.35	0.113
479.80	0.118
480.26	0.112
480.72	0.114
481.18	0.116
481.63	0.115
482.09	0.113
482.55	0.116
483.00	0.116
483.46	0.113
483.92	0.111
484.37	0.115
484.83	0.114
485.29	0.113
485.74	0.112
486.20	0.114
486.66	0.116
487.11	0.113
487.57	0.113
488.03	0.115
488.48	0.113
488.94	0.116
489.40	0.114
489.85	0.115
490.31	0.113
490.77	0.111
491.22	0.115
491.68	0.114
492.13	0.114
492.59	0.113
493.05	0.113
493.50	0.116
493.96	0.113
494.42	0.112
494.87	0.116
495.33	0.112
495.78	0.115
496.24	0.113
496.70	0.115
497.15	0.112
497.61	0.115
498.06	0.113
498.52	0.114
498.98	0.115
499.43	0.113
499.89	0.109
500.34	0.114
500.80	0.112
501.25	0.114
501.71	0.112
502.17	0.112
502.62	0.112
503.08	0.116
503.53	0.113
503.99	0.111
504.44	0.111
504.90	0.110
505.36	0.112
505.81	0.111
506.27	0.111
506.72	0.114
507.18	0.112
507.63	0.111
508.09	0.112
508.54	0.112
509.00	0.112
509.45	0.110
509.91	0.111
510.36	0.111
510.82	0.109
511.27	0.112
511.73	0.113
512.19	0.113
512.64	0.111
513.10	0.111
513.55	0.110
514.01	0.112
514.46	0.112
514.92	0.111
515.37	0.110
515.83	0.112
516.28	0.110
516.73	0.111
517.19	0.111
517.64	0.109
518.10	0.110
518.55	0.110
519.01	0.110
519.46	0.110
519.92	0.110
520.37	0.108
520.83	0.110
521.28	0.109
521.74	0.109
522.19	0.108
522.65	0.108
523.10	0.112
523.55	0.110
524.01	0.107
524.46	0.112
524.92	0.107
525.37	0.110
525.83	0.109
526.28	0.110
526.73	0.109
527.19	0.111
527.64	0.110
528.10	0.110
528.55	0.109
529.01	0.111
529.46	0.108
529.91	0.109
530.37	0.112
530.82	0.110
531.28	0.110
531.73	0.109
532.18	0.109
532.64	0.110
533.09	0.109
533.54	0.113
534.00	0.109
534.45	0.112
534.91	0.110
535.36	0.111
535.81	0.111
536.27	0.112
536.72	0.113
537.17	0.111
537.63	0.112
538.08	0.112
538.54	0.114
538.99	0.114
539.44	0.112
539.90	0.111
540.35	0.112
540.80	0.112
541.26	0.114
541.71	0.114
542.16	0.114
542.62	0.115
543.07	0.116
543.52	0.114
543.98	0.114
544.43	0.113
544.88	0.113
545.34	0.115
545.79	0.113
546.24	0.115
546.69	0.117
547.15	0.117
547.60	0.119
548.05	0.115
548.51	0.119
548.96	0.117
549.41	0.118
549.86	0.117
550.32	0.118
550.77	0.116
551.22	0.120
551.68	0.121
552.13	0.120
552.58	0.120
553.03	0.122
553.49	0.118
553.94	0.120
554.39	0.123
554.84	0.121
555.30	0.123
555.75	0.123
556.20	0.123
556.65	0.125
557.11	0.127
557.56	0.122
558.01	0.124
558.46	0.124
558.92	0.126
559.37	0.127
559.82	0.128
560.27	0.129
560.72	0.128
561.18	0.129
561.63	0.127
562.08	0.130
562.53	0.130
562.99	0.131
563.44	0.129
563.89	0.130
564.34	0.129
564.79	0.131
565.25	0.131
565.70	0.134
566.15	0.135
566.60	0.135
567.05	0.135
567.50	0.136
567.96	0.136
568.41	0.136
568.86	0.138
569.31	0.138
569.76	0.138
570.21	0.138
570.67	0.140
571.12	0.141
571.57	0.142
572.02	0.141
572.47	0.141
572.92	0.143
573.37	0.143
573.83	0.142
574.28	0.143
574.73	0.144
575.18	0.145
575.63	0.148
576.08	0.145
576.53	0.150
576.98	0.147
577.44	0.151
577.89	0.148
578.34	0.153
578.79	0.151
579.24	0.155
579.69	0.155
580.14	0.155
580.59	0.155
581.04	0.156
581.49	0.157
581.95	0.160
582.40	0.160
582.85	0.161
583.30	0.161
583.75	0.162
584.20	0.164
584.65	0.166
585.10	0.167
585.55	0.168
586.00	0.170
586.45	0.170
586.90	0.172
587.35	0.172
587.80	0.173
588.25	0.176
588.71	0.175
589.16	0.178
589.61	0.181
590.06	0.181
590.51	0.183
590.96	0.184
591.41	0.187
591.86	0.186
592.31	0.190
592.76	0.189
593.21	0.191
593.66	0.194
594.11	0.196
594.56	0.196
595.01	0.200
595.46	0.200
595.91	0.203
596.36	0.203
596.81	0.204
597.26	0.206
597.71	0.208
598.16	0.207
598.61	0.210
599.06	0.209
599.51	0.212
599.96	0.215
600.41	0.219
600.86	0.220
601.31	0.217
601.76	0.223
602.21	0.222
602.65	0.223
603.10	0.227
603.55	0.228
604.00	0.230
604.45	0.229
604.90	0.234
605.35	0.233
605.80	0.234
606.25	0.236
606.70	0.236
607.15	0.240
607.60	0.240
608.05	0.240
608.50	0.242
608.95	0.243
609.39	0.244
609.84	0.246
610.29	0.248
610.74	0.246
611.19	0.248
611.64	0.252
612.09	0.252
612.54	0.252
612.99	0.250
613.44	0.253
613.88	0.252
614.33	0.252
614.78	0.257
615.23	0.257
615.68	0.257
616.13	0.257
616.58	0.258
617.03	0.256
617.47	0.258
617.92	0.259
618.37	0.260
618.82	0.262
619.27	0.261
619.72	0.260
620.17	0.262
620.61	0.262
621.06	0.264
621.51	0.265
621.96	0.265
622.41	0.266
622.86	0.268
623.30	0.267
623.75	0.266
624.20	0.267
624.65	0.269
625.10	0.269
625.54	0.269
625.99	0.270
626.44	0.273
626.89	0.274
627.34	0.274
627.78	0.277
628.23	0.277
628.68	0.277
629.13	0.278
629.58	0.279
630.02	0.279
630.47	0.279
630.92	0.283
631.37	0.284
631.81	0.283
632.26	0.287
632.71	0.288
633.16	0.290
633.61	0.291
634.05	0.294
634.50	0.296
634.95	0.297
635.40	0.298
635.84	0.300
636.29	0.301
636.74	0.304
637.18	0.304
637.63	0.306
638.08	0.307
638.53	0.314
638.97	0.313
639.42	0.316
639.87	0.317
640.32	0.320
640.76	0.322
641.21	0.327
641.66	0.327
642.10	0.330
642.55	0.332
643.00	0.333
643.44	0.336
643.89	0.340
644.34	0.342
644.79	0.345
645.23	0.347
645.68	0.349
646.13	0.353
646.57	0.356
647.02	0.357
647.47	0.360
647.91	0.364
648.36	0.368
648.81	0.370
649.25	0.366
649.70	0.372
650.15	0.374
650.59	0.376
651.04	0.379
651.48	0.380
651.93	0.383
652.38	0.384
652.82	0.386
653.27	0.389
653.72	0.393
654.16	0.393
654.61	0.396
655.06	0.397
655.50	0.396
655.95	0.399
656.39	0.403
656.84	0.406
657.29	0.405
657.73	0.408
658.18	0.408
658.62	0.411
659.07	0.413
659.52	0.413
659.96	0.411
660.41	0.414
660.85	0.412
661.30	0.415
661.74	0.414
662.19	0.416
662.64	0.418
663.08	0.417
663.53	0.419
663.97	0.418
664.42	0.421
664.86	0.418
665.31	0.415
665.75	0.418
666.20	0.414
666.65	0.413
667.09	0.414
667.54	0.410
667.98	0.408
668.43	0.409
668.87	0.407
669.32	0.403
669.76	0.401
670.21	0.397
670.65	0.396
671.10	0.393
671.54	0.388
671.99	0.382
672.43	0.379
672.88	0.375
673.32	0.374
673.77	0.362
674.21	0.362
674.66	0.357
675.10	0.351
675.55	0.344
675.99	0.338
676.44	0.335
676.88	0.326
677.33	0.323
677.77	0.315
678.22	0.307
678.66	0.303
679.11	0.296
679.55	0.290
679.99	0.282
680.44	0.275
680.88	0.271
681.33	0.264
681.77	0.258
682.22	0.249
682.66	0.244
683.11	0.237
683.55	0.230
683.99	0.228
684.44	0.220
684.88	0.218
685.33	0.207
685.77	0.204
686.21	0.199
686.66	0.193
687.10	0.189
687.55	0.184
687.99	0.178
688.44	0.174
688.88	0.170
689.32	0.165
689.77	0.159
690.21	0.157
690.65	0.153
691.10	0.150
691.54	0.145
691.99	0.144
692.43	0.140
692.87	0.137
693.32	0.133
693.76	0.130
694.20	0.129
694.65	0.125
695.09	0.124
695.53	0.120
695.98	0.120
696.42	0.117
696.86	0.111
697.31	0.112
697.75	0.113
698.19	0.107
698.64	0.106
699.08	0.108
699.52	0.104
699.97	0.101
700.41	0.102
700.85	0.101
701.30	0.098
701.74	0.096
702.18	0.097
702.63	0.095
703.07	0.093
703.51	0.095
703.96	0.092
704.40	0.091
704.84	0.090
705.28	0.091
705.73	0.090
706.17	0.090
706.61	0.087
707.06	0.089
707.50	0.086
707.94	0.081
708.38	0.085
708.83	0.085
709.27	0.086
709.71	0.084
710.15	0.083
710.60	0.086
711.04	0.085
711.48	0.085
711.92	0.083
712.37	0.083
712.81	0.080
713.25	0.080
713.69	0.082
714.13	0.079
714.58	0.078
715.02	0.080
715.46	0.078
715.90	0.078
716.35	0.081
716.79	0.080
717.23	0.080
717.67	0.081
718.11	0.080
718.56	0.079
719.00	0.080
719.44	0.081
719.88	0.079
720.32	0.078
720.76	0.078
721.21	0.078
721.65	0.081
722.09	0.078
722.53	0.078
722.97	0.079
723.41	0.079
723.86	0.079
724.30	0.080
724.74	0.082
725.18	0.080
725.62	0.082
726.06	0.082
726.50	0.081
726.95	0.079
727.39	0.077
727.83	0.077
728.27	0.078
728.71	0.078
729.15	0.080
729.59	0.079
730.03	0.080
730.48	0.083
730.92	0.078
731.36	0.079
731.80	0.077
732.24	0.079
732.68	0.079
733.12	0.082
733.56	0.081
734.00	0.082
734.44	0.081
734.89	0.081
735.33	0.083
735.77	0.081
736.21	0.080
736.65	0.078
737.09	0.081
737.53	0.083
737.97	0.084
738.41	0.081
738.85	0.082
739.29	0.081
739.73	0.081
740.17	0.083
740.61	0.080
741.05	0.082
741.49	0.082
741.93	0.079
742.37	0.080
742.81	0.081
743.26	0.082
743.70	0.080
744.14	0.084
744.58	0.083
745.02	0.081
745.46	0.084
745.90	0.083
746.34	0.084
746.78	0.081
747.22	0.079
747.66	0.080
748.10	0.081
748.54	0.079
748.98	0.081
749.42	0.083
749.86	0.083
750.29	0.081
750.73	0.079
751.17	0.079
751.61	0.080
752.05	0.082
752.49	0.079
752.93	0.080
753.37	0.082
753.81	0.082
754.25	0.079
754.69	0.079
755.13	0.081
755.57	0.080
756.01	0.079
756.45	0.081
756.89	0.083
757.33	0.080
757.77	0.077
758.21	0.080
758.64	0.080
759.08	0.075
759.52	0.082
759.96	0.080
760.40	0.079
760.84	0.080
761.28	0.079
761.72	0.079
762.16	0.080
762.60	0.080
763.03	0.078
763.47	0.076
763.91	0.080
764.35	0.079
764.79	0.081
765.23	0.077
765.67	0.082
766.11	0.080
766.54	0.079
766.98	0.081
767.42	0.079
767.86	0.077
768.30	0.076
768.74	0.077
769.17	0.079
769.61	0.080
770.05	0.077
770.49	0.079
770.93	0.080
771.37	0.079
771.80	0.076
772.24	0.081
772.68	0.078
773.12	0.079
773.56	0.082
774.00	0.080
774.43	0.081
774.87	0.077
775.31	0.081
775.75	0.079
776.19	0.077
776.62	0.077
777.06	0.080
777.50	0.078
777.94	0.081
778.37	0.078
778.81	0.076
779.25	0.081
779.69	0.079
780.13	0.077
780.56	0.077
781.00	0.078
781.44	0.075
781.88	0.077
782.31	0.080
782.75	0.079
783.19	0.079
783.63	0.078
784.06	0.076
784.50	0.076
784.94	0.078
785.37	0.080
785.81	0.083
786.25	0.078
786.69	0.078
787.12	0.080
787.56	0.079
788.00	0.080
788.43	0.077
788.87	0.076
789.31	0.078
789.75	0.081
790.18	0.078
790.62	0.077
791.06	0.077
791.49	0.076
791.93	0.079
792.37	0.077
792.80	0.077
793.24	0.078
793.68	0.079
794.11	0.076
794.55	0.077
794.99	0.078
795.42	0.075
795.86	0.076
796.30	0.077
796.73	0.079
797.17	0.076
797.61	0.078
798.04	0.081
798.48	0.076
798.91	0.081
799.35	0.079
799.79	0.076
800.22	0.074
800.66	0.078
801.10	0.073
801.53	0.080
801.97	0.079
802.40	0.074
802.84	0.077
803.28	0.071
803.71	0.080
804.15	0.080
804.58	0.075
805.02	0.076
805.46	0.076
805.89	0.078
806.33	0.075
806.76	0.078
807.20	0.070
807.63	0.076
808.07	0.076
808.51	0.072
808.94	0.075
809.38	0.078
809.81	0.074
810.25	0.071
810.68	0.080
811.12	0.073
811.55	0.077
811.99	0.076
812.42	0.074
812.86	0.078
813.29	0.079
813.73	0.072
814.17	0.076
814.60	0.076
815.04	0.073
815.47	0.073
815.91	0.078
816.34	0.076
816.78	0.071
817.21	0.075
817.65	0.074
818.08	0.075
818.52	0.080
818.95	0.077
819.39	0.076
819.82	0.078
820.25	0.077
820.69	0.075
821.12	0.075
821.56	0.077
821.99	0.076
822.43	0.075
822.86	0.070
823.30	0.074
823.73	0.076
824.17	0.072
824.60	0.076
825.04	0.078
825.47	0.077
825.90	0.075
826.34	0.072
826.77	0.082
827.21	0.077
827.64	0.073
828.08	0.076
828.51	0.076
828.94	0.073
829.38	0.080
829.81	0.078
830.25	0.077
830.68	0.079
831.11	0.079
831.55	0.084
831.98	0.073
832.42	0.080
832.85	0.085
833.28	0.082
833.72	0.085
834.15	0.085
834.58	0.077
835.02	0.080
835.45	0.078
835.88	0.083
836.32	0.082
836.75	0.077
837.19	0.079
837.62	0.082
838.05	0.082
838.49	0.083
838.92	0.086
839.35	0.087
839.79	0.078
840.22	0.077
840.65	0.083
841.09	0.081
841.52	0.081
841.95	0.085
842.39	0.079
842.82	0.085
843.25	0.080
843.68	0.090
844.12	0.087
844.55	0.082
844.98	0.085
845.42	0.087
845.85	0.083
846.28	0.083
846.71	0.083
847.15	0.090
847.58	0.090
848.01	0.079
848.45	0.087
848.88	0.082
849.31	0.082
849.74	0.079
850.18	0.084
850.61	0.080
851.04	0.085
851.47	0.089
851.91	0.090
852.34	0.087
852.77	0.084
853.20	0.088
853.64	0.084
854.07	0.083
854.50	0.084
854.93	0.090
855.36	0.078
855.80	0.086
856.23	0.089
856.66	0.086
857.09	0.087
857.52	0.084
857.96	0.087
858.39	0.089
858.82	0.083
859.25	0.088
859.68	0.083
860.12	0.081
860.55	0.088
860.98	0.091
861.41	0.084
861.84	0.081
862.27	0.086
862.71	0.091
863.14	0.087
863.57	0.080
864.00	0.090
864.43	0.089
864.86	0.086
865.30	0.088
865.73	0.086
866.16	0.089
866.59	0.086
867.02	0.083
867.45	0.085
867.88	0.088
868.31	0.087
868.75	0.088
869.18	0.084
869.61	0.085
870.04	0.084
870.47	0.087
870.90	0.089
871.33	0.084
871.76	0.085
872.19	0.095
872.62	0.090
873.06	0.087
873.49	0.092
873.92	0.092
874.35	0.088
874.78	0.094
875.21	0.090
875.64	0.082
876.07	0.087
876.50	0.093
876.93	0.091
877.36	0.087
877.79	0.091
878.22	0.095
878.65	0.092
879.08	0.094
879.51	0.087
879.94	0.090
880.37	0.085
880.80	0.092
881.23	0.092
881.67	0.093
882.10	0.092
882.53	0.093
882.96	0.094
883.39	0.096
883.82	0.087
884.25	0.087
884.68	0.097
885.11	0.091
885.54	0.097
885.97	0.090
886.39	0.094
886.82	0.094
887.25	0.085
887.68	0.096
888.11	0.092
888.54	0.097
888.97	0.095
889.40	0.094
889.83	0.097
890.26	0.092
890.69	0.097
891.12	0.102
891.55	0.098
891.98	0.094
892.41	0.098
892.84	0.096
893.27	0.093
893.70	0.090
894.13	0.101
894.56	0.094
894.98	0.094
895.41	0.099
895.84	0.099
896.27	0.098
896.70	0.106
897.13	0.101
897.56	0.097
897.99	0.098
898.42	0.096
898.85	0.100
899.27	0.094
899.70	0.096
900.13	0.101
900.56	0.099
900.99	0.102
901.42	0.102
901.85	0.104
902.28	0.095
902.70	0.100
903.13	0.097
903.56	0.100
903.99	0.096
904.42	0.092
904.85	0.098
905.27	0.097
905.70	0.102
906.13	0.098
906.56	0.104
906.99	0.100
907.42	0.098
907.84	0.100
908.27	0.095
908.70	0.102
909.13	0.098
909.56	0.103
909.98	0.093
910.41	0.097
910.84	0.095
911.27	0.104
911.70	0.100
912.12	0.099
912.55	0.095
912.98	0.095
913.41	0.096
913.84	0.100
914.26	0.098
914.69	0.099
915.12	0.098
915.55	0.097
915.97	0.101
916.40	0.096
916.83	0.096
917.26	0.106
917.68	0.100
918.11	0.099
918.54	0.094
918.97	0.099
919.39	0.100
919.82	0.105
920.25	0.099
920.67	0.102
921.10	0.101
921.53	0.100
921.96	0.103
922.38	0.106
922.81	0.104
923.24	0.107
923.66	0.105
924.09	0.103
924.52	0.106
924.94	0.103
925.37	0.111
925.80	0.105
926.22	0.110
926.65	0.107
927.08	0.108
927.50	0.111
927.93	0.115
928.36	0.113
928.78	0.109
929.21	0.113
929.64	0.111
930.06	0.109
930.49	0.115
930.92	0.109
931.34	0.117
931.77	0.119
932.20	0.119
932.62	0.114
933.05	0.122
933.47	0.121
933.90	0.124
934.33	0.128
934.75	0.128
935.18	0.121
935.61	0.129
936.03	0.132
936.46	0.129
936.88	0.131
937.31	0.137
937.73	0.139
938.16	0.139
938.59	0.138
939.01	0.137
939.44	0.145
939.86	0.143
940.29	0.142
940.71	0.145
941.14	0.144
941.57	0.148
941.99	0.150
942.42	0.152
942.84	0.160
943.27	0.162
943.69	0.166
944.12	0.165
944.54	0.162
944.97	0.173
945.39	0.178
945.82	0.169
946.24	0.171
946.67	0.176
947.09	0.179
947.52	0.175
947.94	0.182
948.37	0.184
948.79	0.192
949.22	0.187
949.64	0.186
950.07	0.190
950.49	0.193
950.92	0.201
951.34	0.196
951.77	0.201
952.19	0.197
952.62	0.203
953.04	0.209
953.47	0.214
953.89	0.211
954.32	0.216
954.74	0.232
955.17	0.225
955.59	0.229
956.01	0.236
956.44	0.232
956.86	0.234
957.29	0.238
957.71	0.244
958.14	0.250
958.56	0.248
958.98	0.246
959.41	0.252
959.83	0.248
960.26	0.248
960.68	0.253
961.10	0.256
961.53	0.259
961.95	0.255
962.38	0.261
962.80	0.256
963.22	0.255
963.65	0.255
964.07	0.260
964.50	0.263
964.92	0.263
965.34	0.265
965.77	0.262
966.19	0.261
966.61	0.266
967.04	0.272
967.46	0.264
967.88	0.269
968.31	0.258
968.73	0.266
969.15	0.274
969.58	0.270
970.00	0.280
970.42	0.272
970.85	0.263
971.27	0.272
971.69	0.270
972.12	0.270
972.54	0.274
972.96	0.277
973.39	0.275
973.81	0.264
974.23	0.275
974.65	0.274
975.08	0.267
975.50	0.270
975.92	0.280
976.35	0.276
976.77	0.271
977.19	0.270
977.61	0.271
978.04	0.266
978.46	0.270
978.88	0.282
979.30	0.277
979.73	0.272
980.15	0.274
980.57	0.274
980.99	0.272
981.42	0.274
981.84	0.276
982.26	0.273
982.68	0.270
983.11	0.264
983.53	0.276
983.95	0.270
984.37	0.265
984.79	0.267
985.22	0.278
985.64	0.274
986.06	0.266
986.48	0.269
986.90	0.270
987.33	0.259
987.75	0.264
988.17	0.270
988.59	0.261
989.01	0.267
989.43	0.257
989.86	0.267
990.28	0.266
990.70	0.256
991.12	0.265
991.54	0.263
991.96	0.266
992.39	0.264
992.81	0.260
993.23	0.254
993.65	0.262
994.07	0.258
994.49	0.260
994.91	0.257
995.34	0.258
995.76	0.255
996.18	0.261
996.60	0.251
997.02	0.255
997.44	0.248
997.86	0.252
998.28	0.247
998.70	0.259
999.12	0.256
999.55	0.248
999.97	0.252
1000.39	0.251
1000.81	0.250
1001.23	0.247
1001.65	0.246
1002.07	0.245
1002.49	0.234
1002.91	0.241
1003.33	0.235
1003.75	0.245
1004.17	0.237
1004.59	0.237
1005.01	0.242
1005.43	0.241
1005.85	0.229
1006.28	0.236
1006.70	0.228
1007.12	0.220
1007.54	0.229
1007.96	0.238
1008.38	0.230
1008.80	0.223
1009.22	0.232
1009.64	0.220
1010.06	0.232
1010.48	0.230
1010.90	0.228
1011.32	0.222
1011.74	0.220
1012.16	0.210
1012.58	0.220
1013.00	0.216
1013.42	0.212
1013.84	0.214
1014.26	0.220
1014.67	0.226
1015.09	0.214
1015.51	0.197
1015.93	0.210
1016.35	0.223
1016.77	0.223
1017.19	0.197
1017.61	0.209
1018.03	0.207
1018.45	0.210
1018.87	0.217
1019.29	0.204
1019.71	0.204
1020.13	0.216
1020.55	0.202
1020.97	0.193
1021.38	0.205
1021.80	0.199
1022.22	0.196
1022.64	0.198
1023.06	0.185
1023.48	0.203
1023.90	0.201
1024.32	0.188
1024.74	0.189
1025.15	0.186
1025.57	0.180
1025.99	0.186
1026.41	0.185
1026.83	0.190
1027.25	0.186
1027.67	0.183
1028.08	0.184
1028.50	0.179
1028.92	0.174
1029.34	0.163
1029.76	0.182
1030.18	0.175
1030.60	0.185
1031.01	0.199
1031.43	0.172
1031.85	0.166
1032.27	0.175
1032.69	0.173
1033.10	0.169
1033.52	0.175
1033.94	0.158
1034.36	0.163
1034.78	0.172
1035.19	0.167
1035.61	0.170
1036.03	0.157
1036.45	0.151
1036.87	0.153
1037.28	0.171
1037.70	0.148
1038.12	0.155
1038.54	0.158
1038.95	0.154
1039.37	0.143
1039.79	0.151
1040.21	0.171
1040.62	0.147
1041.04	0.155
1041.46	0.135
1041.88	0.151
1042.29	0.149
1042.71	0.142
1043.13	0.158
1043.55	0.133
1043.96	0.126
1044.38	0.153
1044.80	0.165
1045.21	0.129
1045.63	0.153
1046.05	0.139
1046.47	0.145
1046.88	0.134
1047.30	0.140
1047.72	0.159
1048.13	0.133
1048.55	0.149
1048.97	0.149
1049.38	0.147
1049.80	0.146
1050.22	0.138
1050.63	0.137
1051.05	0.138
1051.47	0.142
1051.88	0.126
1052.30	0.171
1052.72	0.131
1053.13	0.152
1053.55	0.132
1053.97	0.152
1054.38	0.151
1054.80	0.132
1055.21	0.152
1055.63	0.152
1056.05	0.159
1056.46	0.138
1056.88	0.191
1057.29	0.170
1057.71	0.143
1058.13	0.165
1058.54	0.173
1058.96	0.130
1059.37	0.146
1059.79	0.145
1060.21	0.162
1060.62	0.136
1061.04	0.162
1061.45	0.182
1061.87	0.129
1062.28	0.169
1062.70	0.215
1063.12	0.198
1063.53	0.149
1063.95	0.174
1064.36	0.160
1064.78	0.157
1065.19	0.098
1065.61	0.120
1066.02	0.192
1066.44	0.166
1066.85	0.166
1067.27	0.183
1067.68	0.115
1068.10	0.148
1068.51	0.166
1068.93	0.161
1069.35	0.156
1069.76	0.126
1070.17	0.286
1070.59	0.304
1071.00	0.286
1071.42	0.204
1071.83	0.354
1072.25	0.117
1072.66	0.254
1073.08	0.228
1073.49	0.320
1073.91	0.086
1074.32	0.201
1074.74	0.241
1075.15	0.110
1075.57	0.077
1075.98	0.149
1076.40	0.411
1076.81	0.430
1077.22	0.154
1077.64	0.303
1078.05	0.308
1078.47	0.145
1078.88	0.219
1079.30	0.250
1079.71	0.301
1080.12	0.092
1080.54	0.332
1080.95	0.394
1081.37	0.235
1081.78	0.160
1082.19	0.376
1082.61	0.286
1083.02	0.288
1083.44	0.290
1083.85	0.239
1084.26	0.791
1084.68	0.616
1085.09	0.177
1085.50	1.980
1085.92	0.269
1086.33	0.171
1086.74	0.420
1087.16	0.756
1087.57	0.443
1087.98	1.684
1088.40	0.563
1088.81	0.516
1089.22	0.528
1089.64	-0.000
1090.05	-0.000
1090.46	0.180
1090.88	-0.000
1091.29	0.465
1091.70	0.483
1092.12	0.401
1092.53	0.424
1092.94	0.340
1093.36	0.390
1093.77	0.733
1094.18	1.366
1094.59	0.214
1095.01	0.517
1095.42	0.213
1095.83	0.615
1096.25	1.494
1096.66	0.512
1097.07	0.204
1097.48	0.374
1097.90	0.057
1098.31	0.432
1098.72	0.272
1099.13	0.457
>>>>>End Processed Spectral Data<<<<<
