SpectraSuite Data File
++++++++++++++++++++++++++++++++++++
Date: Tue Jul 11 14:05:29 CEST 2017
User: IPCE
Dark Spectrum Present: Yes
Reference Spectrum Present: Yes
Number of Sampled Component Spectra: 1
Spectrometers: HR+C0708
Integration Time (usec): 1000 (HR+C0708)
Spectra Averaged: 10 (HR+C0708)
Boxcar Smoothing: 0 (HR+C0708)
Correct for Electrical Dark: No (HR+C0708)
Strobe/Lamp Enabled: No (HR+C0708)
Correct for Detector Non-linearity: No (HR+C0708)
Correct for Stray Light: No (HR+C0708)
Number of Pixels in Processed Spectrum: 2048
>>>>>Begin Processed Spectral Data<<<<<
188.76	0.431
189.23	0.192
189.70	0.590
190.17	0.160
190.64	0.189
191.12	0.094
191.59	0.337
192.06	0.298
192.53	0.506
193.01	0.110
193.48	0.022
193.95	0.007
194.42	-0.016
194.90	0.198
195.37	0.382
195.84	-0.000
196.31	0.278
196.78	0.506
197.26	0.337
197.73	0.034
198.20	0.152
198.67	-0.519
199.14	0.617
199.62	-0.000
200.09	0.367
200.56	0.362
201.03	0.365
201.50	0.263
201.97	0.333
202.45	0.289
202.92	0.258
203.39	0.411
203.86	0.246
204.33	0.282
204.80	0.358
205.28	0.307
205.75	0.270
206.22	0.261
206.69	0.377
207.16	0.319
207.63	0.318
208.11	0.247
208.58	0.212
209.05	0.469
209.52	0.262
209.99	0.358
210.46	0.300
210.93	0.311
211.41	0.330
211.88	0.237
212.35	0.221
212.82	0.312
213.29	0.303
213.76	0.311
214.23	0.330
214.70	0.499
215.18	0.478
215.65	0.386
216.12	0.419
216.59	0.431
217.06	0.529
217.53	0.355
218.00	0.195
218.47	0.492
218.94	0.347
219.41	0.302
219.89	0.409
220.36	0.384
220.83	0.402
221.30	0.399
221.77	0.400
222.24	0.394
222.71	0.344
223.18	0.545
223.65	0.676
224.12	0.507
224.59	0.425
225.06	0.490
225.54	0.542
226.01	0.550
226.48	0.637
226.95	0.813
227.42	0.803
227.89	0.796
228.36	0.803
228.83	1.020
229.30	0.988
229.77	0.973
230.24	1.226
230.71	1.083
231.18	1.127
231.65	1.085
232.12	1.406
232.59	1.278
233.06	1.368
233.53	1.427
234.00	1.393
234.47	1.484
234.94	1.544
235.41	1.582
235.88	1.665
236.35	1.600
236.82	1.705
237.29	1.793
237.76	1.781
238.23	1.768
238.70	1.799
239.17	1.947
239.64	2.074
240.11	1.957
240.58	1.936
241.05	1.992
241.52	2.165
241.99	2.031
242.46	2.055
242.93	2.054
243.40	2.111
243.87	2.176
244.34	2.116
244.81	2.149
245.28	2.201
245.75	2.248
246.22	2.023
246.69	2.135
247.16	2.374
247.63	2.363
248.10	2.332
248.57	2.194
249.04	2.269
249.51	2.152
249.98	2.286
250.45	2.276
250.92	2.114
251.39	2.044
251.85	2.001
252.32	1.945
252.79	1.802
253.26	1.726
253.73	1.681
254.20	1.583
254.67	1.475
255.14	1.400
255.61	1.349
256.08	1.308
256.55	1.248
257.02	1.205
257.49	1.167
257.95	1.122
258.42	1.093
258.89	1.066
259.36	1.035
259.83	1.013
260.30	0.987
260.77	0.965
261.24	0.944
261.71	0.928
262.17	0.911
262.64	0.899
263.11	0.883
263.58	0.866
264.05	0.853
264.52	0.835
264.99	0.827
265.46	0.814
265.92	0.804
266.39	0.795
266.86	0.781
267.33	0.774
267.80	0.766
268.27	0.758
268.74	0.747
269.20	0.740
269.67	0.733
270.14	0.724
270.61	0.719
271.08	0.712
271.55	0.703
272.01	0.697
272.48	0.692
272.95	0.688
273.42	0.682
273.89	0.672
274.36	0.670
274.82	0.669
275.29	0.661
275.76	0.659
276.23	0.655
276.70	0.650
277.16	0.651
277.63	0.643
278.10	0.640
278.57	0.637
279.04	0.634
279.50	0.635
279.97	0.632
280.44	0.634
280.91	0.630
281.38	0.628
281.84	0.624
282.31	0.624
282.78	0.628
283.25	0.625
283.72	0.626
284.18	0.625
284.65	0.627
285.12	0.628
285.59	0.625
286.05	0.625
286.52	0.628
286.99	0.626
287.46	0.628
287.92	0.627
288.39	0.627
288.86	0.626
289.33	0.624
289.79	0.626
290.26	0.621
290.73	0.622
291.20	0.624
291.66	0.619
292.13	0.613
292.60	0.617
293.07	0.612
293.53	0.606
294.00	0.600
294.47	0.595
294.93	0.594
295.40	0.585
295.87	0.577
296.34	0.570
296.80	0.564
297.27	0.554
297.74	0.544
298.20	0.538
298.67	0.534
299.14	0.524
299.60	0.520
300.07	0.507
300.54	0.500
301.01	0.491
301.47	0.480
301.94	0.470
302.41	0.466
302.87	0.458
303.34	0.451
303.81	0.443
304.27	0.432
304.74	0.426
305.21	0.422
305.67	0.414
306.14	0.410
306.61	0.402
307.07	0.396
307.54	0.389
308.01	0.384
308.47	0.380
308.94	0.372
309.40	0.370
309.87	0.365
310.34	0.365
310.80	0.361
311.27	0.354
311.74	0.353
312.20	0.351
312.67	0.344
313.13	0.344
313.60	0.342
314.07	0.341
314.53	0.335
315.00	0.335
315.47	0.332
315.93	0.331
316.40	0.330
316.86	0.323
317.33	0.323
317.80	0.323
318.26	0.319
318.73	0.316
319.19	0.314
319.66	0.314
320.13	0.310
320.59	0.309
321.06	0.305
321.52	0.303
321.99	0.303
322.45	0.300
322.92	0.301
323.39	0.297
323.85	0.295
324.32	0.293
324.78	0.290
325.25	0.288
325.71	0.282
326.18	0.285
326.64	0.285
327.11	0.282
327.58	0.281
328.04	0.278
328.51	0.276
328.97	0.276
329.44	0.276
329.90	0.272
330.37	0.267
330.83	0.267
331.30	0.267
331.76	0.265
332.23	0.262
332.69	0.263
333.16	0.259
333.62	0.257
334.09	0.256
334.56	0.255
335.02	0.251
335.49	0.251
335.95	0.251
336.42	0.246
336.88	0.245
337.35	0.245
337.81	0.243
338.28	0.242
338.74	0.246
339.20	0.243
339.67	0.239
340.13	0.239
340.60	0.236
341.06	0.235
341.53	0.236
341.99	0.232
342.46	0.231
342.92	0.231
343.39	0.232
343.85	0.227
344.32	0.226
344.78	0.226
345.25	0.224
345.71	0.224
346.17	0.223
346.64	0.223
347.10	0.218
347.57	0.218
348.03	0.212
348.50	0.208
348.96	0.211
349.43	0.207
349.89	0.211
350.35	0.204
350.82	0.205
351.28	0.199
351.75	0.198
352.21	0.196
352.67	0.192
353.14	0.188
353.60	0.186
354.07	0.183
354.53	0.175
355.00	0.173
355.46	0.167
355.92	0.162
356.39	0.161
356.85	0.155
357.31	0.151
357.78	0.144
358.24	0.140
358.71	0.137
359.17	0.130
359.63	0.127
360.10	0.128
360.56	0.117
361.03	0.116
361.49	0.116
361.95	0.108
362.42	0.108
362.88	0.107
363.34	0.106
363.81	0.102
364.27	0.101
364.73	0.099
365.20	0.100
365.66	0.099
366.12	0.100
366.59	0.095
367.05	0.098
367.51	0.096
367.98	0.095
368.44	0.096
368.90	0.096
369.37	0.094
369.83	0.094
370.29	0.093
370.76	0.092
371.22	0.092
371.68	0.093
372.15	0.090
372.61	0.088
373.07	0.091
373.54	0.090
374.00	0.092
374.46	0.088
374.92	0.092
375.39	0.088
375.85	0.088
376.31	0.090
376.78	0.089
377.24	0.089
377.70	0.091
378.16	0.089
378.63	0.090
379.09	0.088
379.55	0.088
380.01	0.087
380.48	0.086
380.94	0.089
381.40	0.086
381.87	0.090
382.33	0.085
382.79	0.086
383.25	0.088
383.72	0.086
384.18	0.086
384.64	0.084
385.10	0.084
385.56	0.084
386.03	0.084
386.49	0.085
386.95	0.083
387.41	0.084
387.88	0.085
388.34	0.084
388.80	0.083
389.26	0.082
389.72	0.086
390.19	0.084
390.65	0.082
391.11	0.083
391.57	0.083
392.04	0.082
392.50	0.083
392.96	0.083
393.42	0.083
393.88	0.083
394.34	0.081
394.81	0.081
395.27	0.080
395.73	0.082
396.19	0.081
396.65	0.081
397.12	0.080
397.58	0.079
398.04	0.081
398.50	0.082
398.96	0.080
399.42	0.079
399.89	0.079
400.35	0.078
400.81	0.078
401.27	0.078
401.73	0.081
402.19	0.078
402.65	0.077
403.12	0.074
403.58	0.077
404.04	0.074
404.50	0.076
404.96	0.075
405.42	0.075
405.88	0.075
406.34	0.076
406.81	0.074
407.27	0.073
407.73	0.072
408.19	0.072
408.65	0.074
409.11	0.073
409.57	0.072
410.03	0.072
410.49	0.069
410.96	0.068
411.42	0.069
411.88	0.070
412.34	0.069
412.80	0.069
413.26	0.070
413.72	0.070
414.18	0.068
414.64	0.066
415.10	0.069
415.56	0.067
416.02	0.067
416.48	0.068
416.95	0.071
417.41	0.069
417.87	0.069
418.33	0.067
418.79	0.069
419.25	0.069
419.71	0.069
420.17	0.068
420.63	0.068
421.09	0.066
421.55	0.065
422.01	0.067
422.47	0.069
422.93	0.067
423.39	0.068
423.85	0.069
424.31	0.069
424.77	0.065
425.23	0.068
425.69	0.064
426.15	0.065
426.61	0.065
427.07	0.067
427.53	0.068
427.99	0.065
428.45	0.065
428.91	0.066
429.37	0.065
429.83	0.066
430.29	0.065
430.75	0.065
431.21	0.066
431.67	0.066
432.13	0.066
432.59	0.065
433.05	0.066
433.51	0.065
433.97	0.064
434.43	0.067
434.89	0.063
435.35	0.062
435.81	0.060
436.27	0.062
436.73	0.066
437.19	0.064
437.65	0.064
438.11	0.063
438.57	0.064
439.03	0.060
439.48	0.061
439.94	0.062
440.40	0.058
440.86	0.064
441.32	0.059
441.78	0.060
442.24	0.060
442.70	0.062
443.16	0.060
443.62	0.066
444.08	0.059
444.54	0.063
444.99	0.058
445.45	0.063
445.91	0.059
446.37	0.059
446.83	0.059
447.29	0.062
447.75	0.060
448.21	0.058
448.67	0.060
449.12	0.061
449.58	0.059
450.04	0.060
450.50	0.058
450.96	0.061
451.42	0.058
451.88	0.059
452.34	0.061
452.79	0.056
453.25	0.061
453.71	0.060
454.17	0.057
454.63	0.058
455.09	0.061
455.55	0.062
456.00	0.060
456.46	0.058
456.92	0.058
457.38	0.058
457.84	0.057
458.30	0.058
458.75	0.061
459.21	0.060
459.67	0.060
460.13	0.059
460.59	0.060
461.04	0.058
461.50	0.058
461.96	0.060
462.42	0.058
462.88	0.058
463.33	0.058
463.79	0.062
464.25	0.059
464.71	0.061
465.17	0.059
465.62	0.061
466.08	0.061
466.54	0.060
467.00	0.059
467.46	0.058
467.91	0.059
468.37	0.060
468.83	0.059
469.29	0.061
469.74	0.061
470.20	0.058
470.66	0.063
471.12	0.061
471.57	0.058
472.03	0.060
472.49	0.060
472.95	0.061
473.40	0.060
473.86	0.060
474.32	0.062
474.78	0.061
475.23	0.063
475.69	0.059
476.15	0.061
476.60	0.060
477.06	0.063
477.52	0.061
477.98	0.061
478.43	0.061
478.89	0.062
479.35	0.059
479.80	0.061
480.26	0.058
480.72	0.058
481.18	0.065
481.63	0.061
482.09	0.058
482.55	0.061
483.00	0.063
483.46	0.060
483.92	0.058
484.37	0.061
484.83	0.059
485.29	0.061
485.74	0.059
486.20	0.064
486.66	0.063
487.11	0.059
487.57	0.060
488.03	0.061
488.48	0.060
488.94	0.062
489.40	0.061
489.85	0.062
490.31	0.061
490.77	0.059
491.22	0.061
491.68	0.060
492.13	0.061
492.59	0.061
493.05	0.061
493.50	0.061
493.96	0.060
494.42	0.063
494.87	0.061
495.33	0.059
495.78	0.062
496.24	0.061
496.70	0.062
497.15	0.061
497.61	0.062
498.06	0.060
498.52	0.061
498.98	0.061
499.43	0.063
499.89	0.062
500.34	0.061
500.80	0.061
501.25	0.061
501.71	0.060
502.17	0.062
502.62	0.061
503.08	0.062
503.53	0.062
503.99	0.062
504.44	0.061
504.90	0.060
505.36	0.061
505.81	0.061
506.27	0.064
506.72	0.063
507.18	0.063
507.63	0.061
508.09	0.060
508.54	0.060
509.00	0.060
509.45	0.060
509.91	0.060
510.36	0.059
510.82	0.059
511.27	0.062
511.73	0.063
512.19	0.061
512.64	0.060
513.10	0.060
513.55	0.059
514.01	0.059
514.46	0.063
514.92	0.062
515.37	0.059
515.83	0.062
516.28	0.060
516.73	0.061
517.19	0.058
517.64	0.060
518.10	0.060
518.55	0.061
519.01	0.061
519.46	0.060
519.92	0.060
520.37	0.059
520.83	0.062
521.28	0.059
521.74	0.059
522.19	0.059
522.65	0.061
523.10	0.061
523.55	0.059
524.01	0.059
524.46	0.061
524.92	0.059
525.37	0.059
525.83	0.061
526.28	0.060
526.73	0.061
527.19	0.059
527.64	0.061
528.10	0.063
528.55	0.061
529.01	0.062
529.46	0.061
529.91	0.060
530.37	0.060
530.82	0.061
531.28	0.062
531.73	0.060
532.18	0.062
532.64	0.063
533.09	0.063
533.54	0.064
534.00	0.062
534.45	0.062
534.91	0.061
535.36	0.063
535.81	0.063
536.27	0.065
536.72	0.064
537.17	0.064
537.63	0.064
538.08	0.064
538.54	0.065
538.99	0.066
539.44	0.065
539.90	0.065
540.35	0.065
540.80	0.065
541.26	0.068
541.71	0.067
542.16	0.068
542.62	0.070
543.07	0.071
543.52	0.068
543.98	0.069
544.43	0.067
544.88	0.067
545.34	0.071
545.79	0.069
546.24	0.072
546.69	0.071
547.15	0.072
547.60	0.072
548.05	0.072
548.51	0.073
548.96	0.073
549.41	0.071
549.86	0.073
550.32	0.073
550.77	0.073
551.22	0.074
551.68	0.076
552.13	0.077
552.58	0.077
553.03	0.078
553.49	0.077
553.94	0.079
554.39	0.080
554.84	0.078
555.30	0.081
555.75	0.080
556.20	0.081
556.65	0.083
557.11	0.082
557.56	0.080
558.01	0.083
558.46	0.083
558.92	0.083
559.37	0.087
559.82	0.087
560.27	0.086
560.72	0.087
561.18	0.087
561.63	0.087
562.08	0.089
562.53	0.089
562.99	0.091
563.44	0.092
563.89	0.092
564.34	0.092
564.79	0.093
565.25	0.094
565.70	0.097
566.15	0.096
566.60	0.096
567.05	0.096
567.50	0.097
567.96	0.099
568.41	0.099
568.86	0.100
569.31	0.100
569.76	0.100
570.21	0.103
570.67	0.105
571.12	0.103
571.57	0.106
572.02	0.106
572.47	0.104
572.92	0.108
573.37	0.110
573.83	0.108
574.28	0.110
574.73	0.110
575.18	0.112
575.63	0.114
576.08	0.112
576.53	0.115
576.98	0.115
577.44	0.118
577.89	0.117
578.34	0.118
578.79	0.120
579.24	0.121
579.69	0.122
580.14	0.124
580.59	0.124
581.04	0.125
581.49	0.127
581.95	0.129
582.40	0.130
582.85	0.132
583.30	0.132
583.75	0.135
584.20	0.136
584.65	0.138
585.10	0.140
585.55	0.140
586.00	0.142
586.45	0.142
586.90	0.147
587.35	0.146
587.80	0.149
588.25	0.152
588.71	0.152
589.16	0.152
589.61	0.157
590.06	0.159
590.51	0.161
590.96	0.160
591.41	0.165
591.86	0.164
592.31	0.169
592.76	0.170
593.21	0.171
593.66	0.173
594.11	0.177
594.56	0.179
595.01	0.180
595.46	0.183
595.91	0.187
596.36	0.188
596.81	0.189
597.26	0.192
597.71	0.192
598.16	0.194
598.61	0.197
599.06	0.198
599.51	0.201
599.96	0.207
600.41	0.207
600.86	0.207
601.31	0.208
601.76	0.213
602.21	0.214
602.65	0.214
603.10	0.218
603.55	0.219
604.00	0.222
604.45	0.223
604.90	0.226
605.35	0.227
605.80	0.230
606.25	0.233
606.70	0.233
607.15	0.234
607.60	0.236
608.05	0.240
608.50	0.241
608.95	0.243
609.39	0.243
609.84	0.246
610.29	0.247
610.74	0.246
611.19	0.249
611.64	0.251
612.09	0.254
612.54	0.253
612.99	0.252
613.44	0.252
613.88	0.255
614.33	0.256
614.78	0.256
615.23	0.260
615.68	0.259
616.13	0.260
616.58	0.261
617.03	0.259
617.47	0.261
617.92	0.264
618.37	0.262
618.82	0.263
619.27	0.263
619.72	0.263
620.17	0.264
620.61	0.266
621.06	0.265
621.51	0.268
621.96	0.267
622.41	0.269
622.86	0.269
623.30	0.269
623.75	0.269
624.20	0.271
624.65	0.273
625.10	0.274
625.54	0.273
625.99	0.276
626.44	0.278
626.89	0.279
627.34	0.279
627.78	0.280
628.23	0.282
628.68	0.283
629.13	0.285
629.58	0.287
630.02	0.287
630.47	0.289
630.92	0.291
631.37	0.292
631.81	0.292
632.26	0.294
632.71	0.297
633.16	0.299
633.61	0.301
634.05	0.303
634.50	0.303
634.95	0.309
635.40	0.312
635.84	0.311
636.29	0.313
636.74	0.315
637.18	0.320
637.63	0.323
638.08	0.325
638.53	0.327
638.97	0.330
639.42	0.334
639.87	0.335
640.32	0.339
640.76	0.344
641.21	0.345
641.66	0.350
642.10	0.353
642.55	0.352
643.00	0.360
643.44	0.361
643.89	0.366
644.34	0.368
644.79	0.372
645.23	0.378
645.68	0.381
646.13	0.384
646.57	0.385
647.02	0.391
647.47	0.394
647.91	0.397
648.36	0.402
648.81	0.401
649.25	0.404
649.70	0.410
650.15	0.414
650.59	0.418
651.04	0.420
651.48	0.422
651.93	0.426
652.38	0.428
652.82	0.430
653.27	0.434
653.72	0.438
654.16	0.440
654.61	0.443
655.06	0.445
655.50	0.447
655.95	0.449
656.39	0.454
656.84	0.459
657.29	0.457
657.73	0.461
658.18	0.468
658.62	0.467
659.07	0.470
659.52	0.471
659.96	0.470
660.41	0.471
660.85	0.475
661.30	0.477
661.74	0.478
662.19	0.477
662.64	0.477
663.08	0.483
663.53	0.483
663.97	0.481
664.42	0.482
664.86	0.480
665.31	0.483
665.75	0.482
666.20	0.480
666.65	0.481
667.09	0.480
667.54	0.476
667.98	0.475
668.43	0.472
668.87	0.468
669.32	0.467
669.76	0.463
670.21	0.461
670.65	0.458
671.10	0.452
671.54	0.448
671.99	0.444
672.43	0.435
672.88	0.429
673.32	0.426
673.77	0.417
674.21	0.413
674.66	0.406
675.10	0.398
675.55	0.389
675.99	0.379
676.44	0.377
676.88	0.368
677.33	0.360
677.77	0.351
678.22	0.340
678.66	0.336
679.11	0.326
679.55	0.315
679.99	0.307
680.44	0.299
680.88	0.289
681.33	0.284
681.77	0.273
682.22	0.265
682.66	0.256
683.11	0.249
683.55	0.236
683.99	0.231
684.44	0.222
684.88	0.217
685.33	0.206
685.77	0.199
686.21	0.196
686.66	0.185
687.10	0.179
687.55	0.176
687.99	0.166
688.44	0.161
688.88	0.157
689.32	0.147
689.77	0.143
690.21	0.139
690.65	0.136
691.10	0.127
691.54	0.124
691.99	0.118
692.43	0.115
692.87	0.110
693.32	0.106
693.76	0.103
694.20	0.101
694.65	0.096
695.09	0.093
695.53	0.089
695.98	0.088
696.42	0.084
696.86	0.080
697.31	0.076
697.75	0.075
698.19	0.073
698.64	0.071
699.08	0.072
699.52	0.068
699.97	0.065
700.41	0.065
700.85	0.064
701.30	0.062
701.74	0.056
702.18	0.057
702.63	0.055
703.07	0.054
703.51	0.054
703.96	0.051
704.40	0.051
704.84	0.048
705.28	0.050
705.73	0.047
706.17	0.048
706.61	0.045
707.06	0.045
707.50	0.044
707.94	0.043
708.38	0.043
708.83	0.042
709.27	0.041
709.71	0.041
710.15	0.040
710.60	0.042
711.04	0.040
711.48	0.039
711.92	0.040
712.37	0.037
712.81	0.036
713.25	0.035
713.69	0.037
714.13	0.034
714.58	0.034
715.02	0.037
715.46	0.034
715.90	0.033
716.35	0.037
716.79	0.033
717.23	0.037
717.67	0.035
718.11	0.033
718.56	0.034
719.00	0.035
719.44	0.036
719.88	0.033
720.32	0.034
720.76	0.033
721.21	0.033
721.65	0.036
722.09	0.036
722.53	0.034
722.97	0.035
723.41	0.033
723.86	0.036
724.30	0.034
724.74	0.034
725.18	0.034
725.62	0.034
726.06	0.036
726.50	0.035
726.95	0.033
727.39	0.032
727.83	0.034
728.27	0.034
728.71	0.035
729.15	0.036
729.59	0.036
730.03	0.036
730.48	0.037
730.92	0.033
731.36	0.033
731.80	0.034
732.24	0.036
732.68	0.034
733.12	0.036
733.56	0.036
734.00	0.035
734.44	0.035
734.89	0.038
735.33	0.037
735.77	0.037
736.21	0.035
736.65	0.034
737.09	0.035
737.53	0.039
737.97	0.039
738.41	0.038
738.85	0.039
739.29	0.038
739.73	0.036
740.17	0.038
740.61	0.037
741.05	0.038
741.49	0.037
741.93	0.037
742.37	0.038
742.81	0.039
743.26	0.036
743.70	0.036
744.14	0.038
744.58	0.039
745.02	0.037
745.46	0.038
745.90	0.037
746.34	0.038
746.78	0.036
747.22	0.036
747.66	0.037
748.10	0.038
748.54	0.034
748.98	0.036
749.42	0.036
749.86	0.038
750.29	0.036
750.73	0.038
751.17	0.037
751.61	0.035
752.05	0.039
752.49	0.035
752.93	0.034
753.37	0.038
753.81	0.037
754.25	0.035
754.69	0.035
755.13	0.037
755.57	0.035
756.01	0.036
756.45	0.035
756.89	0.040
757.33	0.036
757.77	0.033
758.21	0.036
758.64	0.036
759.08	0.033
759.52	0.037
759.96	0.033
760.40	0.035
760.84	0.037
761.28	0.037
761.72	0.035
762.16	0.035
762.60	0.034
763.03	0.035
763.47	0.035
763.91	0.038
764.35	0.037
764.79	0.036
765.23	0.035
765.67	0.037
766.11	0.036
766.54	0.037
766.98	0.036
767.42	0.035
767.86	0.033
768.30	0.033
768.74	0.034
769.17	0.036
769.61	0.038
770.05	0.036
770.49	0.034
770.93	0.036
771.37	0.037
771.80	0.034
772.24	0.037
772.68	0.037
773.12	0.034
773.56	0.036
774.00	0.035
774.43	0.036
774.87	0.035
775.31	0.035
775.75	0.036
776.19	0.037
776.62	0.034
777.06	0.034
777.50	0.035
777.94	0.036
778.37	0.036
778.81	0.035
779.25	0.038
779.69	0.037
780.13	0.031
780.56	0.033
781.00	0.036
781.44	0.035
781.88	0.038
782.31	0.037
782.75	0.037
783.19	0.034
783.63	0.034
784.06	0.034
784.50	0.034
784.94	0.032
785.37	0.036
785.81	0.036
786.25	0.033
786.69	0.034
787.12	0.036
787.56	0.035
788.00	0.034
788.43	0.034
788.87	0.033
789.31	0.039
789.75	0.037
790.18	0.035
790.62	0.036
791.06	0.035
791.49	0.035
791.93	0.034
792.37	0.035
792.80	0.035
793.24	0.035
793.68	0.034
794.11	0.031
794.55	0.035
794.99	0.037
795.42	0.032
795.86	0.036
796.30	0.033
796.73	0.038
797.17	0.036
797.61	0.036
798.04	0.039
798.48	0.033
798.91	0.034
799.35	0.033
799.79	0.035
800.22	0.031
800.66	0.032
801.10	0.034
801.53	0.041
801.97	0.036
802.40	0.031
802.84	0.035
803.28	0.033
803.71	0.035
804.15	0.032
804.58	0.035
805.02	0.030
805.46	0.034
805.89	0.035
806.33	0.034
806.76	0.031
807.20	0.029
807.63	0.035
808.07	0.030
808.51	0.028
808.94	0.038
809.38	0.037
809.81	0.028
810.25	0.034
810.68	0.036
811.12	0.031
811.55	0.032
811.99	0.034
812.42	0.035
812.86	0.037
813.29	0.035
813.73	0.032
814.17	0.036
814.60	0.034
815.04	0.033
815.47	0.033
815.91	0.033
816.34	0.034
816.78	0.029
817.21	0.033
817.65	0.031
818.08	0.038
818.52	0.038
818.95	0.035
819.39	0.035
819.82	0.037
820.25	0.035
820.69	0.033
821.12	0.037
821.56	0.033
821.99	0.037
822.43	0.035
822.86	0.030
823.30	0.034
823.73	0.033
824.17	0.032
824.60	0.038
825.04	0.033
825.47	0.039
825.90	0.039
826.34	0.035
826.77	0.040
827.21	0.037
827.64	0.033
828.08	0.037
828.51	0.034
828.94	0.038
829.38	0.041
829.81	0.042
830.25	0.037
830.68	0.038
831.11	0.036
831.55	0.043
831.98	0.036
832.42	0.038
832.85	0.047
833.28	0.037
833.72	0.042
834.15	0.045
834.58	0.043
835.02	0.043
835.45	0.041
835.88	0.041
836.32	0.049
836.75	0.036
837.19	0.041
837.62	0.045
838.05	0.037
838.49	0.038
838.92	0.042
839.35	0.045
839.79	0.040
840.22	0.039
840.65	0.044
841.09	0.041
841.52	0.040
841.95	0.043
842.39	0.040
842.82	0.042
843.25	0.042
843.68	0.054
844.12	0.049
844.55	0.037
844.98	0.044
845.42	0.043
845.85	0.043
846.28	0.040
846.71	0.043
847.15	0.050
847.58	0.050
848.01	0.040
848.45	0.051
848.88	0.048
849.31	0.045
849.74	0.038
850.18	0.053
850.61	0.049
851.04	0.050
851.47	0.044
851.91	0.051
852.34	0.045
852.77	0.043
853.20	0.046
853.64	0.044
854.07	0.043
854.50	0.044
854.93	0.051
855.36	0.043
855.80	0.049
856.23	0.045
856.66	0.047
857.09	0.045
857.52	0.046
857.96	0.046
858.39	0.043
858.82	0.045
859.25	0.048
859.68	0.048
860.12	0.042
860.55	0.048
860.98	0.051
861.41	0.049
861.84	0.048
862.27	0.046
862.71	0.049
863.14	0.044
863.57	0.043
864.00	0.048
864.43	0.047
864.86	0.045
865.30	0.052
865.73	0.050
866.16	0.053
866.59	0.047
867.02	0.047
867.45	0.049
867.88	0.045
868.31	0.048
868.75	0.053
869.18	0.056
869.61	0.050
870.04	0.049
870.47	0.050
870.90	0.050
871.33	0.046
871.76	0.045
872.19	0.055
872.62	0.049
873.06	0.042
873.49	0.049
873.92	0.051
874.35	0.052
874.78	0.054
875.21	0.054
875.64	0.053
876.07	0.056
876.50	0.057
876.93	0.058
877.36	0.051
877.79	0.050
878.22	0.059
878.65	0.054
879.08	0.052
879.51	0.050
879.94	0.054
880.37	0.050
880.80	0.050
881.23	0.047
881.67	0.054
882.10	0.053
882.53	0.053
882.96	0.056
883.39	0.054
883.82	0.045
884.25	0.054
884.68	0.059
885.11	0.057
885.54	0.059
885.97	0.057
886.39	0.057
886.82	0.062
887.25	0.055
887.68	0.061
888.11	0.053
888.54	0.059
888.97	0.054
889.40	0.057
889.83	0.059
890.26	0.055
890.69	0.058
891.12	0.060
891.55	0.059
891.98	0.056
892.41	0.066
892.84	0.058
893.27	0.058
893.70	0.061
894.13	0.061
894.56	0.060
894.98	0.058
895.41	0.059
895.84	0.063
896.27	0.060
896.70	0.063
897.13	0.062
897.56	0.060
897.99	0.055
898.42	0.063
898.85	0.065
899.27	0.057
899.70	0.058
900.13	0.063
900.56	0.060
900.99	0.062
901.42	0.064
901.85	0.066
902.28	0.063
902.70	0.059
903.13	0.062
903.56	0.059
903.99	0.064
904.42	0.059
904.85	0.062
905.27	0.062
905.70	0.063
906.13	0.061
906.56	0.064
906.99	0.066
907.42	0.065
907.84	0.066
908.27	0.060
908.70	0.068
909.13	0.060
909.56	0.066
909.98	0.060
910.41	0.062
910.84	0.060
911.27	0.068
911.70	0.066
912.12	0.066
912.55	0.069
912.98	0.067
913.41	0.059
913.84	0.064
914.26	0.063
914.69	0.062
915.12	0.066
915.55	0.062
915.97	0.065
916.40	0.064
916.83	0.063
917.26	0.071
917.68	0.065
918.11	0.064
918.54	0.063
918.97	0.061
919.39	0.065
919.82	0.065
920.25	0.064
920.67	0.067
921.10	0.067
921.53	0.068
921.96	0.068
922.38	0.068
922.81	0.066
923.24	0.070
923.66	0.073
924.09	0.072
924.52	0.073
924.94	0.069
925.37	0.073
925.80	0.069
926.22	0.071
926.65	0.074
927.08	0.072
927.50	0.074
927.93	0.078
928.36	0.078
928.78	0.075
929.21	0.078
929.64	0.076
930.06	0.077
930.49	0.078
930.92	0.077
931.34	0.085
931.77	0.083
932.20	0.080
932.62	0.081
933.05	0.083
933.47	0.088
933.90	0.089
934.33	0.090
934.75	0.094
935.18	0.089
935.61	0.091
936.03	0.107
936.46	0.099
936.88	0.095
937.31	0.099
937.73	0.105
938.16	0.101
938.59	0.104
939.01	0.100
939.44	0.114
939.86	0.103
940.29	0.105
940.71	0.113
941.14	0.116
941.57	0.116
941.99	0.112
942.42	0.128
942.84	0.126
943.27	0.123
943.69	0.123
944.12	0.129
944.54	0.133
944.97	0.122
945.39	0.131
945.82	0.129
946.24	0.134
946.67	0.140
947.09	0.138
947.52	0.142
947.94	0.151
948.37	0.152
948.79	0.153
949.22	0.151
949.64	0.147
950.07	0.159
950.49	0.155
950.92	0.160
951.34	0.162
951.77	0.170
952.19	0.168
952.62	0.170
953.04	0.173
953.47	0.175
953.89	0.182
954.32	0.174
954.74	0.190
955.17	0.193
955.59	0.188
956.01	0.205
956.44	0.199
956.86	0.193
957.29	0.205
957.71	0.208
958.14	0.203
958.56	0.210
958.98	0.210
959.41	0.216
959.83	0.211
960.26	0.216
960.68	0.218
961.10	0.220
961.53	0.225
961.95	0.220
962.38	0.227
962.80	0.225
963.22	0.225
963.65	0.232
964.07	0.228
964.50	0.225
964.92	0.219
965.34	0.234
965.77	0.227
966.19	0.230
966.61	0.232
967.04	0.235
967.46	0.236
967.88	0.231
968.31	0.224
968.73	0.231
969.15	0.232
969.58	0.230
970.00	0.234
970.42	0.235
970.85	0.227
971.27	0.237
971.69	0.241
972.12	0.242
972.54	0.237
972.96	0.244
973.39	0.238
973.81	0.237
974.23	0.235
974.65	0.249
975.08	0.240
975.50	0.235
975.92	0.237
976.35	0.235
976.77	0.236
977.19	0.238
977.61	0.239
978.04	0.241
978.46	0.237
978.88	0.232
979.30	0.244
979.73	0.242
980.15	0.235
980.57	0.242
980.99	0.235
981.42	0.244
981.84	0.236
982.26	0.243
982.68	0.234
983.11	0.232
983.53	0.241
983.95	0.242
984.37	0.235
984.79	0.235
985.22	0.233
985.64	0.233
986.06	0.231
986.48	0.233
986.90	0.239
987.33	0.234
987.75	0.227
988.17	0.233
988.59	0.241
989.01	0.237
989.43	0.230
989.86	0.232
990.28	0.223
990.70	0.226
991.12	0.229
991.54	0.219
991.96	0.227
992.39	0.227
992.81	0.221
993.23	0.225
993.65	0.229
994.07	0.217
994.49	0.225
994.91	0.216
995.34	0.219
995.76	0.221
996.18	0.221
996.60	0.216
997.02	0.216
997.44	0.219
997.86	0.226
998.28	0.216
998.70	0.218
999.12	0.223
999.55	0.220
999.97	0.217
1000.39	0.215
1000.81	0.220
1001.23	0.210
1001.65	0.204
1002.07	0.199
1002.49	0.206
1002.91	0.211
1003.33	0.199
1003.75	0.224
1004.17	0.202
1004.59	0.205
1005.01	0.204
1005.43	0.206
1005.85	0.203
1006.28	0.199
1006.70	0.200
1007.12	0.203
1007.54	0.201
1007.96	0.196
1008.38	0.203
1008.80	0.183
1009.22	0.197
1009.64	0.195
1010.06	0.193
1010.48	0.191
1010.90	0.194
1011.32	0.199
1011.74	0.195
1012.16	0.189
1012.58	0.177
1013.00	0.197
1013.42	0.180
1013.84	0.180
1014.26	0.187
1014.67	0.192
1015.09	0.178
1015.51	0.175
1015.93	0.178
1016.35	0.182
1016.77	0.174
1017.19	0.170
1017.61	0.174
1018.03	0.178
1018.45	0.184
1018.87	0.184
1019.29	0.177
1019.71	0.164
1020.13	0.165
1020.55	0.175
1020.97	0.173
1021.38	0.169
1021.80	0.149
1022.22	0.170
1022.64	0.157
1023.06	0.146
1023.48	0.161
1023.90	0.167
1024.32	0.157
1024.74	0.161
1025.15	0.152
1025.57	0.152
1025.99	0.149
1026.41	0.149
1026.83	0.158
1027.25	0.149
1027.67	0.135
1028.08	0.147
1028.50	0.153
1028.92	0.135
1029.34	0.139
1029.76	0.150
1030.18	0.143
1030.60	0.143
1031.01	0.131
1031.43	0.147
1031.85	0.144
1032.27	0.129
1032.69	0.140
1033.10	0.130
1033.52	0.143
1033.94	0.120
1034.36	0.127
1034.78	0.130
1035.19	0.127
1035.61	0.138
1036.03	0.140
1036.45	0.123
1036.87	0.120
1037.28	0.136
1037.70	0.133
1038.12	0.119
1038.54	0.139
1038.95	0.122
1039.37	0.123
1039.79	0.123
1040.21	0.128
1040.62	0.143
1041.04	0.129
1041.46	0.090
1041.88	0.127
1042.29	0.114
1042.71	0.109
1043.13	0.139
1043.55	0.105
1043.96	0.102
1044.38	0.113
1044.80	0.110
1045.21	0.129
1045.63	0.104
1046.05	0.093
1046.47	0.125
1046.88	0.096
1047.30	0.106
1047.72	0.133
1048.13	0.119
1048.55	0.108
1048.97	0.118
1049.38	0.102
1049.80	0.132
1050.22	0.104
1050.63	0.097
1051.05	0.133
1051.47	0.120
1051.88	0.086
1052.30	0.134
1052.72	0.095
1053.13	0.091
1053.55	0.101
1053.97	0.126
1054.38	0.125
1054.80	0.083
1055.21	0.106
1055.63	0.144
1056.05	0.146
1056.46	0.090
1056.88	0.156
1057.29	0.109
1057.71	0.123
1058.13	0.111
1058.54	0.135
1058.96	0.120
1059.37	0.116
1059.79	0.115
1060.21	0.135
1060.62	0.122
1061.04	0.069
1061.45	0.148
1061.87	0.112
1062.28	0.120
1062.70	0.126
1063.12	0.129
1063.53	0.125
1063.95	0.143
1064.36	0.090
1064.78	0.193
1065.19	0.057
1065.61	0.069
1066.02	0.198
1066.44	0.118
1066.85	0.103
1067.27	0.174
1067.68	0.083
1068.10	0.157
1068.51	0.072
1068.93	0.077
1069.35	0.164
1069.76	0.081
1070.17	0.122
1070.59	0.268
1071.00	0.159
1071.42	0.144
1071.83	0.284
1072.25	0.101
1072.66	0.166
1073.08	0.116
1073.49	0.208
1073.91	0.137
1074.32	0.095
1074.74	0.113
1075.15	0.174
1075.57	0.199
1075.98	0.033
1076.40	0.230
1076.81	0.047
1077.22	0.159
1077.64	0.151
1078.05	0.221
1078.47	0.243
1078.88	0.155
1079.30	0.027
1079.71	0.512
1080.12	0.326
1080.54	-0.002
1080.95	0.275
1081.37	0.104
1081.78	0.109
1082.19	0.162
1082.61	0.095
1083.02	0.058
1083.44	0.076
1083.85	0.261
1084.26	0.336
1084.68	0.014
1085.09	0.075
1085.50	1.026
1085.92	0.203
1086.33	0.156
1086.74	0.112
1087.16	0.432
1087.57	0.443
1087.98	0.193
1088.40	0.077
1088.81	0.561
1089.22	0.061
1089.64	0.186
1090.05	-0.000
1090.46	0.020
1090.88	0.060
1091.29	0.294
1091.70	0.352
1092.12	0.255
1092.53	0.927
1092.94	0.076
1093.36	-0.000
1093.77	1.775
1094.18	0.169
1094.59	0.091
1095.01	0.773
1095.42	-0.104
1095.83	0.205
1096.25	0.374
1096.66	0.716
1097.07	-0.033
1097.48	0.295
1097.90	0.423
1098.31	0.269
1098.72	0.315
1099.13	0.594
>>>>>End Processed Spectral Data<<<<<
