SpectraSuite Data File
++++++++++++++++++++++++++++++++++++
Date: Tue Jul 11 13:35:29 CEST 2017
User: IPCE
Dark Spectrum Present: Yes
Reference Spectrum Present: Yes
Number of Sampled Component Spectra: 1
Spectrometers: HR+C0708
Integration Time (usec): 1000 (HR+C0708)
Spectra Averaged: 10 (HR+C0708)
Boxcar Smoothing: 0 (HR+C0708)
Correct for Electrical Dark: No (HR+C0708)
Strobe/Lamp Enabled: No (HR+C0708)
Correct for Detector Non-linearity: No (HR+C0708)
Correct for Stray Light: No (HR+C0708)
Number of Pixels in Processed Spectrum: 2048
>>>>>Begin Processed Spectral Data<<<<<
188.76	0.261
189.23	-0.000
189.70	0.578
190.17	0.092
190.64	0.490
191.12	0.349
191.59	0.297
192.06	0.284
192.53	0.307
193.01	0.435
193.48	0.275
193.95	-0.053
194.42	0.421
194.90	0.964
195.37	0.097
195.84	0.669
196.31	0.880
196.78	0.278
197.26	0.531
197.73	0.406
198.20	-0.108
198.67	0.301
199.14	-0.181
199.62	0.535
200.09	0.788
200.56	0.186
201.03	0.399
201.50	0.418
201.97	0.389
202.45	0.642
202.92	0.412
203.39	0.425
203.86	0.377
204.33	0.351
204.80	0.497
205.28	0.426
205.75	0.359
206.22	0.610
206.69	0.442
207.16	0.316
207.63	0.584
208.11	0.706
208.58	0.466
209.05	0.807
209.52	0.430
209.99	0.568
210.46	0.607
210.93	0.338
211.41	0.547
211.88	0.621
212.35	0.368
212.82	0.603
213.29	0.545
213.76	0.379
214.23	0.530
214.70	0.582
215.18	0.478
215.65	0.665
216.12	0.414
216.59	0.463
217.06	0.695
217.53	0.362
218.00	0.323
218.47	0.449
218.94	0.419
219.41	0.566
219.89	0.559
220.36	0.522
220.83	0.963
221.30	0.635
221.77	0.669
222.24	0.562
222.71	0.510
223.18	0.616
223.65	0.809
224.12	0.661
224.59	0.610
225.06	0.615
225.54	0.617
226.01	0.844
226.48	0.668
226.95	0.903
227.42	0.968
227.89	0.814
228.36	0.961
228.83	1.167
229.30	1.215
229.77	1.317
230.24	1.582
230.71	1.250
231.18	1.219
231.65	1.225
232.12	1.409
232.59	1.581
233.06	1.363
233.53	1.810
234.00	1.405
234.47	1.612
234.94	1.722
235.41	1.819
235.88	1.905
236.35	1.960
236.82	1.821
237.29	1.974
237.76	2.036
238.23	1.869
238.70	1.948
239.17	2.128
239.64	2.115
240.11	2.187
240.58	1.960
241.05	2.064
241.52	2.237
241.99	2.163
242.46	2.368
242.93	2.362
243.40	2.223
243.87	2.508
244.34	2.328
244.81	2.278
245.28	2.375
245.75	2.430
246.22	2.149
246.69	2.416
247.16	2.355
247.63	2.401
248.10	2.586
248.57	2.191
249.04	2.507
249.51	2.256
249.98	2.433
250.45	2.525
250.92	2.316
251.39	2.288
251.85	2.342
252.32	2.385
252.79	2.319
253.26	2.526
253.73	2.652
254.20	2.646
254.67	2.692
255.14	2.299
255.61	2.759
256.08	2.839
256.55	2.519
257.02	2.549
257.49	2.492
257.95	2.504
258.42	2.810
258.89	2.643
259.36	2.917
259.83	2.619
260.30	2.510
260.77	2.791
261.24	2.651
261.71	2.548
262.17	2.696
262.64	2.764
263.11	2.686
263.58	2.638
264.05	2.553
264.52	2.612
264.99	2.716
265.46	2.693
265.92	2.744
266.39	2.671
266.86	2.577
267.33	2.542
267.80	2.670
268.27	2.680
268.74	2.838
269.20	2.592
269.67	2.652
270.14	2.776
270.61	2.569
271.08	2.705
271.55	2.569
272.01	2.501
272.48	2.617
272.95	2.643
273.42	2.633
273.89	2.682
274.36	2.480
274.82	2.736
275.29	2.530
275.76	2.450
276.23	2.644
276.70	2.727
277.16	2.595
277.63	2.731
278.10	2.745
278.57	2.674
279.04	2.678
279.50	2.460
279.97	2.562
280.44	2.768
280.91	2.422
281.38	2.591
281.84	2.600
282.31	2.582
282.78	2.627
283.25	2.652
283.72	2.453
284.18	2.632
284.65	2.611
285.12	2.584
285.59	2.714
286.05	2.408
286.52	2.675
286.99	2.860
287.46	2.595
287.92	2.519
288.39	2.589
288.86	2.481
289.33	2.482
289.79	2.585
290.26	2.533
290.73	2.557
291.20	2.597
291.66	2.791
292.13	2.441
292.60	2.441
293.07	2.585
293.53	2.591
294.00	2.465
294.47	2.534
294.93	2.404
295.40	2.433
295.87	2.597
296.34	2.480
296.80	2.599
297.27	2.567
297.74	2.350
298.20	2.514
298.67	2.476
299.14	2.495
299.60	2.531
300.07	2.421
300.54	2.338
301.01	2.489
301.47	2.508
301.94	2.400
302.41	2.469
302.87	2.353
303.34	2.649
303.81	2.383
304.27	2.442
304.74	2.462
305.21	2.299
305.67	2.355
306.14	2.432
306.61	2.330
307.07	2.323
307.54	2.379
308.01	2.327
308.47	2.439
308.94	2.389
309.40	2.302
309.87	2.441
310.34	2.376
310.80	2.302
311.27	2.453
311.74	2.424
312.20	2.309
312.67	2.345
313.13	2.315
313.60	2.339
314.07	2.386
314.53	2.243
315.00	2.401
315.47	2.292
315.93	2.336
316.40	2.369
316.86	2.329
317.33	2.322
317.80	2.455
318.26	2.262
318.73	2.353
319.19	2.282
319.66	2.267
320.13	2.265
320.59	2.252
321.06	2.311
321.52	2.282
321.99	2.176
322.45	2.238
322.92	2.253
323.39	2.142
323.85	2.166
324.32	2.117
324.78	2.194
325.25	2.164
325.71	2.035
326.18	2.065
326.64	2.116
327.11	2.186
327.58	2.114
328.04	2.083
328.51	2.053
328.97	2.127
329.44	2.115
329.90	2.056
330.37	2.078
330.83	2.079
331.30	2.058
331.76	2.092
332.23	2.116
332.69	2.066
333.16	2.139
333.62	2.113
334.09	2.186
334.56	2.148
335.02	2.071
335.49	2.126
335.95	2.074
336.42	2.033
336.88	2.118
337.35	2.195
337.81	2.125
338.28	2.103
338.74	2.108
339.20	2.135
339.67	2.133
340.13	2.084
340.60	2.115
341.06	2.087
341.53	2.086
341.99	2.112
342.46	2.069
342.92	2.078
343.39	2.104
343.85	1.999
344.32	2.069
344.78	2.029
345.25	2.043
345.71	1.991
346.17	1.929
346.64	1.913
347.10	1.932
347.57	1.908
348.03	1.843
348.50	1.852
348.96	1.769
349.43	1.740
349.89	1.743
350.35	1.701
350.82	1.696
351.28	1.638
351.75	1.569
352.21	1.519
352.67	1.479
353.14	1.411
353.60	1.345
354.07	1.292
354.53	1.237
355.00	1.172
355.46	1.096
355.92	1.022
356.39	0.936
356.85	0.850
357.31	0.778
357.78	0.695
358.24	0.619
358.71	0.558
359.17	0.495
359.63	0.435
360.10	0.388
360.56	0.336
361.03	0.302
361.49	0.269
361.95	0.238
362.42	0.217
362.88	0.195
363.34	0.177
363.81	0.166
364.27	0.153
364.73	0.143
365.20	0.136
365.66	0.129
366.12	0.127
366.59	0.118
367.05	0.118
367.51	0.114
367.98	0.109
368.44	0.108
368.90	0.105
369.37	0.099
369.83	0.099
370.29	0.102
370.76	0.095
371.22	0.095
371.68	0.094
372.15	0.094
372.61	0.094
373.07	0.098
373.54	0.091
374.00	0.092
374.46	0.089
374.92	0.092
375.39	0.093
375.85	0.089
376.31	0.091
376.78	0.092
377.24	0.089
377.70	0.089
378.16	0.089
378.63	0.086
379.09	0.085
379.55	0.088
380.01	0.084
380.48	0.089
380.94	0.086
381.40	0.084
381.87	0.087
382.33	0.084
382.79	0.084
383.25	0.085
383.72	0.082
384.18	0.082
384.64	0.083
385.10	0.082
385.56	0.080
386.03	0.081
386.49	0.083
386.95	0.077
387.41	0.080
387.88	0.079
388.34	0.078
388.80	0.081
389.26	0.079
389.72	0.080
390.19	0.082
390.65	0.078
391.11	0.080
391.57	0.079
392.04	0.079
392.50	0.077
392.96	0.078
393.42	0.079
393.88	0.078
394.34	0.079
394.81	0.077
395.27	0.077
395.73	0.079
396.19	0.076
396.65	0.076
397.12	0.074
397.58	0.074
398.04	0.075
398.50	0.076
398.96	0.074
399.42	0.075
399.89	0.072
400.35	0.074
400.81	0.073
401.27	0.072
401.73	0.072
402.19	0.075
402.65	0.069
403.12	0.069
403.58	0.068
404.04	0.068
404.50	0.068
404.96	0.070
405.42	0.067
405.88	0.070
406.34	0.068
406.81	0.068
407.27	0.065
407.73	0.066
408.19	0.064
408.65	0.064
409.11	0.065
409.57	0.064
410.03	0.065
410.49	0.061
410.96	0.063
411.42	0.061
411.88	0.063
412.34	0.063
412.80	0.064
413.26	0.061
413.72	0.065
414.18	0.060
414.64	0.059
415.10	0.062
415.56	0.059
416.02	0.059
416.48	0.061
416.95	0.061
417.41	0.062
417.87	0.060
418.33	0.059
418.79	0.059
419.25	0.056
419.71	0.061
420.17	0.059
420.63	0.059
421.09	0.059
421.55	0.055
422.01	0.057
422.47	0.060
422.93	0.061
423.39	0.059
423.85	0.059
424.31	0.058
424.77	0.057
425.23	0.059
425.69	0.057
426.15	0.057
426.61	0.056
427.07	0.057
427.53	0.058
427.99	0.057
428.45	0.056
428.91	0.057
429.37	0.055
429.83	0.057
430.29	0.058
430.75	0.057
431.21	0.056
431.67	0.056
432.13	0.051
432.59	0.055
433.05	0.057
433.51	0.053
433.97	0.055
434.43	0.056
434.89	0.054
435.35	0.054
435.81	0.052
436.27	0.053
436.73	0.054
437.19	0.056
437.65	0.054
438.11	0.054
438.57	0.052
439.03	0.052
439.48	0.050
439.94	0.050
440.40	0.053
440.86	0.050
441.32	0.049
441.78	0.052
442.24	0.050
442.70	0.054
443.16	0.050
443.62	0.056
444.08	0.049
444.54	0.052
444.99	0.049
445.45	0.050
445.91	0.050
446.37	0.049
446.83	0.051
447.29	0.051
447.75	0.051
448.21	0.049
448.67	0.048
449.12	0.051
449.58	0.051
450.04	0.050
450.50	0.048
450.96	0.050
451.42	0.049
451.88	0.050
452.34	0.051
452.79	0.047
453.25	0.050
453.71	0.049
454.17	0.049
454.63	0.045
455.09	0.052
455.55	0.054
456.00	0.048
456.46	0.046
456.92	0.047
457.38	0.047
457.84	0.047
458.30	0.048
458.75	0.049
459.21	0.049
459.67	0.048
460.13	0.046
460.59	0.049
461.04	0.047
461.50	0.050
461.96	0.048
462.42	0.048
462.88	0.047
463.33	0.049
463.79	0.050
464.25	0.047
464.71	0.048
465.17	0.048
465.62	0.050
466.08	0.049
466.54	0.048
467.00	0.049
467.46	0.049
467.91	0.047
468.37	0.052
468.83	0.048
469.29	0.049
469.74	0.047
470.20	0.050
470.66	0.051
471.12	0.050
471.57	0.049
472.03	0.050
472.49	0.051
472.95	0.050
473.40	0.049
473.86	0.050
474.32	0.049
474.78	0.049
475.23	0.050
475.69	0.049
476.15	0.048
476.60	0.049
477.06	0.050
477.52	0.048
477.98	0.050
478.43	0.049
478.89	0.049
479.35	0.049
479.80	0.051
480.26	0.050
480.72	0.051
481.18	0.052
481.63	0.051
482.09	0.047
482.55	0.051
483.00	0.051
483.46	0.050
483.92	0.048
484.37	0.052
484.83	0.048
485.29	0.050
485.74	0.049
486.20	0.050
486.66	0.051
487.11	0.050
487.57	0.050
488.03	0.052
488.48	0.051
488.94	0.050
489.40	0.049
489.85	0.049
490.31	0.049
490.77	0.048
491.22	0.049
491.68	0.050
492.13	0.050
492.59	0.049
493.05	0.049
493.50	0.050
493.96	0.050
494.42	0.051
494.87	0.050
495.33	0.049
495.78	0.051
496.24	0.049
496.70	0.051
497.15	0.050
497.61	0.050
498.06	0.051
498.52	0.051
498.98	0.051
499.43	0.051
499.89	0.049
500.34	0.051
500.80	0.050
501.25	0.048
501.71	0.048
502.17	0.051
502.62	0.051
503.08	0.050
503.53	0.051
503.99	0.051
504.44	0.051
504.90	0.048
505.36	0.050
505.81	0.050
506.27	0.051
506.72	0.051
507.18	0.049
507.63	0.047
508.09	0.049
508.54	0.050
509.00	0.049
509.45	0.049
509.91	0.049
510.36	0.049
510.82	0.049
511.27	0.051
511.73	0.050
512.19	0.049
512.64	0.049
513.10	0.047
513.55	0.048
514.01	0.049
514.46	0.049
514.92	0.049
515.37	0.052
515.83	0.051
516.28	0.049
516.73	0.050
517.19	0.048
517.64	0.049
518.10	0.047
518.55	0.048
519.01	0.048
519.46	0.049
519.92	0.048
520.37	0.047
520.83	0.052
521.28	0.048
521.74	0.048
522.19	0.049
522.65	0.047
523.10	0.049
523.55	0.047
524.01	0.047
524.46	0.048
524.92	0.046
525.37	0.046
525.83	0.051
526.28	0.050
526.73	0.048
527.19	0.049
527.64	0.050
528.10	0.050
528.55	0.051
529.01	0.051
529.46	0.049
529.91	0.049
530.37	0.050
530.82	0.048
531.28	0.048
531.73	0.048
532.18	0.050
532.64	0.050
533.09	0.052
533.54	0.051
534.00	0.049
534.45	0.051
534.91	0.051
535.36	0.051
535.81	0.054
536.27	0.054
536.72	0.053
537.17	0.053
537.63	0.052
538.08	0.054
538.54	0.054
538.99	0.054
539.44	0.054
539.90	0.054
540.35	0.053
540.80	0.055
541.26	0.056
541.71	0.056
542.16	0.057
542.62	0.056
543.07	0.057
543.52	0.058
543.98	0.058
544.43	0.057
544.88	0.058
545.34	0.060
545.79	0.059
546.24	0.060
546.69	0.061
547.15	0.061
547.60	0.062
548.05	0.060
548.51	0.064
548.96	0.061
549.41	0.063
549.86	0.061
550.32	0.064
550.77	0.064
551.22	0.063
551.68	0.067
552.13	0.066
552.58	0.066
553.03	0.066
553.49	0.068
553.94	0.068
554.39	0.068
554.84	0.069
555.30	0.069
555.75	0.069
556.20	0.071
556.65	0.072
557.11	0.075
557.56	0.072
558.01	0.073
558.46	0.075
558.92	0.074
559.37	0.078
559.82	0.076
560.27	0.077
560.72	0.077
561.18	0.080
561.63	0.078
562.08	0.080
562.53	0.079
562.99	0.083
563.44	0.084
563.89	0.081
564.34	0.083
564.79	0.082
565.25	0.085
565.70	0.087
566.15	0.089
566.60	0.087
567.05	0.090
567.50	0.088
567.96	0.089
568.41	0.090
568.86	0.092
569.31	0.094
569.76	0.092
570.21	0.094
570.67	0.095
571.12	0.095
571.57	0.097
572.02	0.099
572.47	0.098
572.92	0.100
573.37	0.100
573.83	0.101
574.28	0.103
574.73	0.102
575.18	0.104
575.63	0.106
576.08	0.106
576.53	0.107
576.98	0.110
577.44	0.111
577.89	0.110
578.34	0.113
578.79	0.113
579.24	0.115
579.69	0.117
580.14	0.115
580.59	0.118
581.04	0.118
581.49	0.121
581.95	0.124
582.40	0.124
582.85	0.125
583.30	0.127
583.75	0.130
584.20	0.129
584.65	0.133
585.10	0.134
585.55	0.134
586.00	0.138
586.45	0.139
586.90	0.142
587.35	0.143
587.80	0.146
588.25	0.147
588.71	0.148
589.16	0.149
589.61	0.152
590.06	0.155
590.51	0.156
590.96	0.161
591.41	0.160
591.86	0.163
592.31	0.167
592.76	0.167
593.21	0.170
593.66	0.173
594.11	0.176
594.56	0.176
595.01	0.179
595.46	0.182
595.91	0.186
596.36	0.187
596.81	0.188
597.26	0.192
597.71	0.194
598.16	0.196
598.61	0.198
599.06	0.199
599.51	0.202
599.96	0.205
600.41	0.208
600.86	0.209
601.31	0.209
601.76	0.214
602.21	0.215
602.65	0.218
603.10	0.223
603.55	0.223
604.00	0.225
604.45	0.229
604.90	0.230
605.35	0.232
605.80	0.236
606.25	0.237
606.70	0.240
607.15	0.238
607.60	0.240
608.05	0.246
608.50	0.247
608.95	0.248
609.39	0.249
609.84	0.250
610.29	0.254
610.74	0.253
611.19	0.255
611.64	0.256
612.09	0.258
612.54	0.257
612.99	0.259
613.44	0.259
613.88	0.262
614.33	0.262
614.78	0.264
615.23	0.266
615.68	0.266
616.13	0.266
616.58	0.267
617.03	0.265
617.47	0.267
617.92	0.272
618.37	0.271
618.82	0.270
619.27	0.271
619.72	0.271
620.17	0.272
620.61	0.272
621.06	0.273
621.51	0.274
621.96	0.275
622.41	0.275
622.86	0.277
623.30	0.276
623.75	0.278
624.20	0.280
624.65	0.281
625.10	0.281
625.54	0.280
625.99	0.282
626.44	0.285
626.89	0.285
627.34	0.286
627.78	0.288
628.23	0.288
628.68	0.287
629.13	0.291
629.58	0.292
630.02	0.293
630.47	0.299
630.92	0.298
631.37	0.300
631.81	0.300
632.26	0.303
632.71	0.306
633.16	0.307
633.61	0.307
634.05	0.314
634.50	0.315
634.95	0.316
635.40	0.320
635.84	0.321
636.29	0.323
636.74	0.326
637.18	0.330
637.63	0.333
638.08	0.336
638.53	0.339
638.97	0.343
639.42	0.346
639.87	0.347
640.32	0.352
640.76	0.356
641.21	0.359
641.66	0.360
642.10	0.366
642.55	0.369
643.00	0.372
643.44	0.373
643.89	0.381
644.34	0.384
644.79	0.390
645.23	0.393
645.68	0.396
646.13	0.402
646.57	0.404
647.02	0.410
647.47	0.413
647.91	0.419
648.36	0.423
648.81	0.426
649.25	0.428
649.70	0.430
650.15	0.436
650.59	0.443
651.04	0.445
651.48	0.448
651.93	0.450
652.38	0.457
652.82	0.457
653.27	0.464
653.72	0.466
654.16	0.470
654.61	0.473
655.06	0.477
655.50	0.480
655.95	0.480
656.39	0.487
656.84	0.489
657.29	0.493
657.73	0.496
658.18	0.498
658.62	0.502
659.07	0.504
659.52	0.508
659.96	0.514
660.41	0.513
660.85	0.516
661.30	0.516
661.74	0.518
662.19	0.519
662.64	0.523
663.08	0.523
663.53	0.526
663.97	0.526
664.42	0.527
664.86	0.528
665.31	0.531
665.75	0.529
666.20	0.526
666.65	0.529
667.09	0.525
667.54	0.523
667.98	0.523
668.43	0.522
668.87	0.518
669.32	0.516
669.76	0.514
670.21	0.509
670.65	0.503
671.10	0.501
671.54	0.494
671.99	0.488
672.43	0.484
672.88	0.475
673.32	0.470
673.77	0.463
674.21	0.454
674.66	0.448
675.10	0.440
675.55	0.431
675.99	0.422
676.44	0.412
676.88	0.404
677.33	0.396
677.77	0.385
678.22	0.374
678.66	0.369
679.11	0.355
679.55	0.348
679.99	0.336
680.44	0.329
680.88	0.316
681.33	0.307
681.77	0.296
682.22	0.288
682.66	0.277
683.11	0.268
683.55	0.257
683.99	0.248
684.44	0.240
684.88	0.233
685.33	0.221
685.77	0.215
686.21	0.207
686.66	0.199
687.10	0.191
687.55	0.183
687.99	0.175
688.44	0.170
688.88	0.161
689.32	0.156
689.77	0.149
690.21	0.143
690.65	0.138
691.10	0.132
691.54	0.125
691.99	0.121
692.43	0.116
692.87	0.113
693.32	0.107
693.76	0.103
694.20	0.101
694.65	0.096
695.09	0.091
695.53	0.090
695.98	0.086
696.42	0.080
696.86	0.076
697.31	0.075
697.75	0.074
698.19	0.068
698.64	0.066
699.08	0.070
699.52	0.065
699.97	0.062
700.41	0.058
700.85	0.058
701.30	0.054
701.74	0.054
702.18	0.053
702.63	0.049
703.07	0.050
703.51	0.049
703.96	0.047
704.40	0.046
704.84	0.045
705.28	0.044
705.73	0.043
706.17	0.040
706.61	0.040
707.06	0.038
707.50	0.037
707.94	0.036
708.38	0.038
708.83	0.035
709.27	0.035
709.71	0.033
710.15	0.034
710.60	0.035
711.04	0.033
711.48	0.032
711.92	0.033
712.37	0.031
712.81	0.030
713.25	0.029
713.69	0.030
714.13	0.027
714.58	0.025
715.02	0.030
715.46	0.029
715.90	0.026
716.35	0.030
716.79	0.028
717.23	0.030
717.67	0.030
718.11	0.029
718.56	0.027
719.00	0.025
719.44	0.028
719.88	0.027
720.32	0.027
720.76	0.026
721.21	0.027
721.65	0.029
722.09	0.028
722.53	0.027
722.97	0.027
723.41	0.027
723.86	0.027
724.30	0.028
724.74	0.030
725.18	0.028
725.62	0.028
726.06	0.030
726.50	0.030
726.95	0.028
727.39	0.029
727.83	0.026
728.27	0.027
728.71	0.029
729.15	0.030
729.59	0.028
730.03	0.030
730.48	0.030
730.92	0.029
731.36	0.028
731.80	0.027
732.24	0.028
732.68	0.027
733.12	0.030
733.56	0.029
734.00	0.029
734.44	0.029
734.89	0.031
735.33	0.030
735.77	0.031
736.21	0.030
736.65	0.027
737.09	0.027
737.53	0.031
737.97	0.032
738.41	0.027
738.85	0.031
739.29	0.031
739.73	0.029
740.17	0.029
740.61	0.031
741.05	0.031
741.49	0.031
741.93	0.028
742.37	0.030
742.81	0.032
743.26	0.031
743.70	0.028
744.14	0.033
744.58	0.031
745.02	0.030
745.46	0.033
745.90	0.032
746.34	0.030
746.78	0.031
747.22	0.031
747.66	0.028
748.10	0.031
748.54	0.028
748.98	0.030
749.42	0.031
749.86	0.030
750.29	0.031
750.73	0.030
751.17	0.030
751.61	0.029
752.05	0.029
752.49	0.029
752.93	0.029
753.37	0.029
753.81	0.030
754.25	0.028
754.69	0.029
755.13	0.030
755.57	0.029
756.01	0.029
756.45	0.030
756.89	0.032
757.33	0.031
757.77	0.026
758.21	0.029
758.64	0.030
759.08	0.029
759.52	0.029
759.96	0.029
760.40	0.030
760.84	0.029
761.28	0.031
761.72	0.028
762.16	0.030
762.60	0.030
763.03	0.031
763.47	0.027
763.91	0.030
764.35	0.029
764.79	0.029
765.23	0.025
765.67	0.032
766.11	0.027
766.54	0.029
766.98	0.028
767.42	0.029
767.86	0.026
768.30	0.026
768.74	0.029
769.17	0.027
769.61	0.030
770.05	0.029
770.49	0.028
770.93	0.033
771.37	0.031
771.80	0.029
772.24	0.031
772.68	0.032
773.12	0.029
773.56	0.030
774.00	0.028
774.43	0.029
774.87	0.030
775.31	0.027
775.75	0.030
776.19	0.030
776.62	0.028
777.06	0.028
777.50	0.031
777.94	0.033
778.37	0.030
778.81	0.028
779.25	0.031
779.69	0.027
780.13	0.027
780.56	0.031
781.00	0.031
781.44	0.028
781.88	0.032
782.31	0.030
782.75	0.033
783.19	0.030
783.63	0.029
784.06	0.026
784.50	0.029
784.94	0.026
785.37	0.028
785.81	0.031
786.25	0.027
786.69	0.031
787.12	0.029
787.56	0.031
788.00	0.027
788.43	0.028
788.87	0.031
789.31	0.031
789.75	0.032
790.18	0.033
790.62	0.031
791.06	0.029
791.49	0.028
791.93	0.029
792.37	0.030
792.80	0.032
793.24	0.028
793.68	0.031
794.11	0.026
794.55	0.027
794.99	0.028
795.42	0.029
795.86	0.027
796.30	0.031
796.73	0.031
797.17	0.028
797.61	0.028
798.04	0.027
798.48	0.029
798.91	0.031
799.35	0.028
799.79	0.029
800.22	0.028
800.66	0.029
801.10	0.032
801.53	0.032
801.97	0.032
802.40	0.025
802.84	0.027
803.28	0.027
803.71	0.028
804.15	0.028
804.58	0.030
805.02	0.029
805.46	0.028
805.89	0.031
806.33	0.028
806.76	0.027
807.20	0.025
807.63	0.026
808.07	0.030
808.51	0.026
808.94	0.026
809.38	0.030
809.81	0.026
810.25	0.028
810.68	0.032
811.12	0.028
811.55	0.027
811.99	0.029
812.42	0.026
812.86	0.034
813.29	0.030
813.73	0.027
814.17	0.029
814.60	0.027
815.04	0.025
815.47	0.029
815.91	0.030
816.34	0.026
816.78	0.029
817.21	0.026
817.65	0.026
818.08	0.028
818.52	0.029
818.95	0.029
819.39	0.028
819.82	0.028
820.25	0.031
820.69	0.029
821.12	0.028
821.56	0.032
821.99	0.029
822.43	0.030
822.86	0.025
823.30	0.028
823.73	0.025
824.17	0.027
824.60	0.027
825.04	0.031
825.47	0.032
825.90	0.030
826.34	0.028
826.77	0.030
827.21	0.029
827.64	0.031
828.08	0.032
828.51	0.031
828.94	0.030
829.38	0.030
829.81	0.033
830.25	0.036
830.68	0.032
831.11	0.035
831.55	0.036
831.98	0.029
832.42	0.031
832.85	0.039
833.28	0.032
833.72	0.036
834.15	0.040
834.58	0.037
835.02	0.040
835.45	0.030
835.88	0.036
836.32	0.037
836.75	0.028
837.19	0.035
837.62	0.039
838.05	0.037
838.49	0.037
838.92	0.037
839.35	0.041
839.79	0.037
840.22	0.033
840.65	0.038
841.09	0.037
841.52	0.038
841.95	0.037
842.39	0.034
842.82	0.042
843.25	0.039
843.68	0.042
844.12	0.037
844.55	0.034
844.98	0.036
845.42	0.040
845.85	0.039
846.28	0.035
846.71	0.038
847.15	0.039
847.58	0.043
848.01	0.034
848.45	0.042
848.88	0.039
849.31	0.041
849.74	0.038
850.18	0.046
850.61	0.038
851.04	0.039
851.47	0.037
851.91	0.037
852.34	0.043
852.77	0.039
853.20	0.047
853.64	0.039
854.07	0.040
854.50	0.033
854.93	0.040
855.36	0.039
855.80	0.039
856.23	0.040
856.66	0.040
857.09	0.046
857.52	0.044
857.96	0.042
858.39	0.044
858.82	0.039
859.25	0.042
859.68	0.045
860.12	0.034
860.55	0.036
860.98	0.044
861.41	0.044
861.84	0.041
862.27	0.035
862.71	0.045
863.14	0.047
863.57	0.038
864.00	0.043
864.43	0.044
864.86	0.042
865.30	0.048
865.73	0.047
866.16	0.049
866.59	0.044
867.02	0.037
867.45	0.042
867.88	0.046
868.31	0.042
868.75	0.046
869.18	0.049
869.61	0.048
870.04	0.045
870.47	0.046
870.90	0.047
871.33	0.046
871.76	0.043
872.19	0.046
872.62	0.046
873.06	0.039
873.49	0.047
873.92	0.043
874.35	0.049
874.78	0.043
875.21	0.054
875.64	0.044
876.07	0.040
876.50	0.051
876.93	0.048
877.36	0.049
877.79	0.051
878.22	0.052
878.65	0.052
879.08	0.050
879.51	0.038
879.94	0.051
880.37	0.045
880.80	0.046
881.23	0.049
881.67	0.050
882.10	0.055
882.53	0.047
882.96	0.050
883.39	0.053
883.82	0.049
884.25	0.044
884.68	0.056
885.11	0.047
885.54	0.057
885.97	0.049
886.39	0.048
886.82	0.053
887.25	0.047
887.68	0.050
888.11	0.051
888.54	0.054
888.97	0.048
889.40	0.053
889.83	0.055
890.26	0.049
890.69	0.058
891.12	0.059
891.55	0.057
891.98	0.053
892.41	0.053
892.84	0.057
893.27	0.052
893.70	0.049
894.13	0.057
894.56	0.051
894.98	0.057
895.41	0.057
895.84	0.059
896.27	0.055
896.70	0.061
897.13	0.054
897.56	0.059
897.99	0.059
898.42	0.057
898.85	0.064
899.27	0.058
899.70	0.053
900.13	0.055
900.56	0.057
900.99	0.061
901.42	0.061
901.85	0.059
902.28	0.059
902.70	0.059
903.13	0.056
903.56	0.059
903.99	0.055
904.42	0.054
904.85	0.058
905.27	0.060
905.70	0.061
906.13	0.059
906.56	0.061
906.99	0.058
907.42	0.059
907.84	0.059
908.27	0.058
908.70	0.062
909.13	0.060
909.56	0.063
909.98	0.053
910.41	0.063
910.84	0.058
911.27	0.064
911.70	0.060
912.12	0.052
912.55	0.062
912.98	0.061
913.41	0.058
913.84	0.061
914.26	0.061
914.69	0.060
915.12	0.056
915.55	0.058
915.97	0.064
916.40	0.059
916.83	0.057
917.26	0.063
917.68	0.063
918.11	0.058
918.54	0.059
918.97	0.061
919.39	0.061
919.82	0.058
920.25	0.059
920.67	0.059
921.10	0.062
921.53	0.060
921.96	0.062
922.38	0.067
922.81	0.062
923.24	0.061
923.66	0.064
924.09	0.066
924.52	0.068
924.94	0.064
925.37	0.069
925.80	0.066
926.22	0.069
926.65	0.067
927.08	0.071
927.50	0.074
927.93	0.073
928.36	0.069
928.78	0.072
929.21	0.071
929.64	0.076
930.06	0.075
930.49	0.077
930.92	0.069
931.34	0.079
931.77	0.076
932.20	0.079
932.62	0.074
933.05	0.082
933.47	0.080
933.90	0.083
934.33	0.085
934.75	0.089
935.18	0.083
935.61	0.084
936.03	0.092
936.46	0.089
936.88	0.091
937.31	0.095
937.73	0.098
938.16	0.102
938.59	0.098
939.01	0.097
939.44	0.102
939.86	0.104
940.29	0.104
940.71	0.110
941.14	0.108
941.57	0.107
941.99	0.109
942.42	0.115
942.84	0.114
943.27	0.114
943.69	0.122
944.12	0.128
944.54	0.127
944.97	0.128
945.39	0.130
945.82	0.121
946.24	0.136
946.67	0.132
947.09	0.135
947.52	0.130
947.94	0.134
948.37	0.141
948.79	0.145
949.22	0.141
949.64	0.146
950.07	0.139
950.49	0.156
950.92	0.155
951.34	0.154
951.77	0.168
952.19	0.159
952.62	0.163
953.04	0.167
953.47	0.179
953.89	0.176
954.32	0.176
954.74	0.176
955.17	0.178
955.59	0.181
956.01	0.189
956.44	0.200
956.86	0.193
957.29	0.193
957.71	0.200
958.14	0.199
958.56	0.199
958.98	0.205
959.41	0.204
959.83	0.206
960.26	0.207
960.68	0.206
961.10	0.215
961.53	0.214
961.95	0.209
962.38	0.221
962.80	0.215
963.22	0.216
963.65	0.215
964.07	0.219
964.50	0.217
964.92	0.222
965.34	0.222
965.77	0.221
966.19	0.224
966.61	0.224
967.04	0.229
967.46	0.228
967.88	0.225
968.31	0.217
968.73	0.223
969.15	0.226
969.58	0.221
970.00	0.225
970.42	0.228
970.85	0.227
971.27	0.228
971.69	0.233
972.12	0.235
972.54	0.230
972.96	0.234
973.39	0.234
973.81	0.230
974.23	0.233
974.65	0.229
975.08	0.229
975.50	0.232
975.92	0.236
976.35	0.225
976.77	0.228
977.19	0.226
977.61	0.227
978.04	0.232
978.46	0.234
978.88	0.233
979.30	0.238
979.73	0.227
980.15	0.226
980.57	0.235
980.99	0.234
981.42	0.239
981.84	0.234
982.26	0.235
982.68	0.233
983.11	0.233
983.53	0.227
983.95	0.228
984.37	0.227
984.79	0.231
985.22	0.232
985.64	0.233
986.06	0.229
986.48	0.221
986.90	0.230
987.33	0.226
987.75	0.233
988.17	0.227
988.59	0.227
989.01	0.231
989.43	0.227
989.86	0.221
990.28	0.219
990.70	0.222
991.12	0.218
991.54	0.223
991.96	0.222
992.39	0.218
992.81	0.225
993.23	0.217
993.65	0.225
994.07	0.212
994.49	0.215
994.91	0.213
995.34	0.216
995.76	0.209
996.18	0.216
996.60	0.211
997.02	0.209
997.44	0.209
997.86	0.224
998.28	0.217
998.70	0.212
999.12	0.216
999.55	0.207
999.97	0.208
1000.39	0.208
1000.81	0.211
1001.23	0.212
1001.65	0.204
1002.07	0.203
1002.49	0.195
1002.91	0.205
1003.33	0.196
1003.75	0.205
1004.17	0.200
1004.59	0.203
1005.01	0.202
1005.43	0.205
1005.85	0.195
1006.28	0.196
1006.70	0.198
1007.12	0.200
1007.54	0.194
1007.96	0.192
1008.38	0.185
1008.80	0.187
1009.22	0.197
1009.64	0.174
1010.06	0.192
1010.48	0.188
1010.90	0.186
1011.32	0.184
1011.74	0.188
1012.16	0.183
1012.58	0.172
1013.00	0.174
1013.42	0.167
1013.84	0.174
1014.26	0.173
1014.67	0.184
1015.09	0.180
1015.51	0.166
1015.93	0.169
1016.35	0.186
1016.77	0.174
1017.19	0.166
1017.61	0.171
1018.03	0.171
1018.45	0.175
1018.87	0.168
1019.29	0.178
1019.71	0.164
1020.13	0.170
1020.55	0.169
1020.97	0.166
1021.38	0.163
1021.80	0.160
1022.22	0.167
1022.64	0.149
1023.06	0.153
1023.48	0.148
1023.90	0.157
1024.32	0.158
1024.74	0.146
1025.15	0.152
1025.57	0.152
1025.99	0.138
1026.41	0.158
1026.83	0.142
1027.25	0.152
1027.67	0.141
1028.08	0.140
1028.50	0.145
1028.92	0.131
1029.34	0.120
1029.76	0.143
1030.18	0.135
1030.60	0.122
1031.01	0.141
1031.43	0.137
1031.85	0.141
1032.27	0.147
1032.69	0.139
1033.10	0.134
1033.52	0.135
1033.94	0.141
1034.36	0.135
1034.78	0.135
1035.19	0.121
1035.61	0.125
1036.03	0.133
1036.45	0.121
1036.87	0.106
1037.28	0.138
1037.70	0.122
1038.12	0.118
1038.54	0.110
1038.95	0.120
1039.37	0.126
1039.79	0.117
1040.21	0.136
1040.62	0.137
1041.04	0.125
1041.46	0.111
1041.88	0.123
1042.29	0.121
1042.71	0.126
1043.13	0.107
1043.55	0.111
1043.96	0.117
1044.38	0.118
1044.80	0.115
1045.21	0.109
1045.63	0.099
1046.05	0.110
1046.47	0.104
1046.88	0.095
1047.30	0.110
1047.72	0.107
1048.13	0.118
1048.55	0.109
1048.97	0.110
1049.38	0.118
1049.80	0.122
1050.22	0.120
1050.63	0.113
1051.05	0.089
1051.47	0.109
1051.88	0.112
1052.30	0.121
1052.72	0.123
1053.13	0.114
1053.55	0.101
1053.97	0.109
1054.38	0.097
1054.80	0.092
1055.21	0.113
1055.63	0.101
1056.05	0.126
1056.46	0.109
1056.88	0.132
1057.29	0.135
1057.71	0.114
1058.13	0.099
1058.54	0.130
1058.96	0.080
1059.37	0.093
1059.79	0.146
1060.21	0.152
1060.62	0.099
1061.04	0.159
1061.45	0.113
1061.87	0.094
1062.28	0.137
1062.70	0.112
1063.12	0.117
1063.53	0.099
1063.95	0.116
1064.36	0.088
1064.78	0.144
1065.19	0.071
1065.61	0.070
1066.02	0.109
1066.44	0.132
1066.85	0.118
1067.27	0.160
1067.68	0.101
1068.10	0.098
1068.51	0.082
1068.93	0.096
1069.35	0.166
1069.76	0.059
1070.17	0.106
1070.59	0.194
1071.00	0.208
1071.42	0.183
1071.83	0.122
1072.25	0.132
1072.66	0.160
1073.08	0.128
1073.49	0.332
1073.91	0.072
1074.32	0.146
1074.74	0.111
1075.15	0.111
1075.57	0.237
1075.98	0.080
1076.40	0.393
1076.81	0.246
1077.22	0.238
1077.64	0.345
1078.05	0.457
1078.47	0.222
1078.88	0.268
1079.30	0.179
1079.71	0.257
1080.12	0.254
1080.54	0.120
1080.95	0.212
1081.37	0.101
1081.78	0.207
1082.19	0.188
1082.61	0.401
1083.02	0.136
1083.44	0.132
1083.85	0.449
1084.26	0.112
1084.68	0.120
1085.09	0.112
1085.50	0.373
1085.92	0.317
1086.33	0.689
1086.74	0.018
1087.16	0.077
1087.57	0.325
1087.98	0.166
1088.40	0.159
1088.81	0.260
1089.22	0.084
1089.64	0.211
1090.05	0.207
1090.46	0.134
1090.88	0.205
1091.29	0.275
1091.70	0.279
1092.12	0.146
1092.53	0.111
1092.94	0.096
1093.36	0.241
1093.77	-0.000
1094.18	0.477
1094.59	0.108
1095.01	1.151
1095.42	-0.015
1095.83	0.273
1096.25	-0.000
1096.66	1.716
1097.07	0.094
1097.48	0.224
1097.90	-0.028
1098.31	0.004
1098.72	0.227
1099.13	0.450
>>>>>End Processed Spectral Data<<<<<
