SpectraSuite Data File
++++++++++++++++++++++++++++++++++++
Date: Tue Jul 11 15:00:59 CEST 2017
User: IPCE
Dark Spectrum Present: Yes
Reference Spectrum Present: Yes
Number of Sampled Component Spectra: 1
Spectrometers: HR+C0708
Integration Time (usec): 1000 (HR+C0708)
Spectra Averaged: 10 (HR+C0708)
Boxcar Smoothing: 0 (HR+C0708)
Correct for Electrical Dark: No (HR+C0708)
Strobe/Lamp Enabled: No (HR+C0708)
Correct for Detector Non-linearity: No (HR+C0708)
Correct for Stray Light: No (HR+C0708)
Number of Pixels in Processed Spectrum: 2048
>>>>>Begin Processed Spectral Data<<<<<
188.76	0.607
189.23	0.899
189.70	0.784
190.17	1.230
190.64	0.164
191.12	0.224
191.59	0.545
192.06	0.215
192.53	0.472
193.01	-0.000
193.48	0.494
193.95	-0.127
194.42	-0.000
194.90	0.357
195.37	-0.000
195.84	-0.000
196.31	1.181
196.78	-0.000
197.26	-0.000
197.73	0.552
198.20	-0.000
198.67	-0.362
199.14	-0.043
199.62	-0.000
200.09	0.373
200.56	0.222
201.03	0.312
201.50	0.325
201.97	0.641
202.45	0.383
202.92	0.349
203.39	0.418
203.86	0.420
204.33	0.213
204.80	0.507
205.28	0.481
205.75	0.305
206.22	0.271
206.69	0.411
207.16	0.301
207.63	0.437
208.11	0.267
208.58	0.377
209.05	0.578
209.52	0.300
209.99	0.565
210.46	0.369
210.93	0.395
211.41	0.478
211.88	0.576
212.35	0.326
212.82	0.447
213.29	0.505
213.76	0.383
214.23	0.357
214.70	0.610
215.18	0.672
215.65	0.411
216.12	0.429
216.59	0.601
217.06	0.436
217.53	0.342
218.00	0.327
218.47	0.478
218.94	0.372
219.41	0.496
219.89	0.431
220.36	0.441
220.83	0.413
221.30	0.507
221.77	0.469
222.24	0.576
222.71	0.454
223.18	0.529
223.65	0.550
224.12	0.731
224.59	0.606
225.06	0.412
225.54	0.705
226.01	0.835
226.48	0.660
226.95	0.778
227.42	0.832
227.89	0.860
228.36	0.903
228.83	0.921
229.30	1.033
229.77	1.066
230.24	1.261
230.71	1.160
231.18	1.122
231.65	1.164
232.12	1.321
232.59	1.346
233.06	1.286
233.53	1.542
234.00	1.466
234.47	1.592
234.94	1.533
235.41	1.624
235.88	1.761
236.35	1.653
236.82	1.741
237.29	1.869
237.76	1.916
238.23	1.881
238.70	1.860
239.17	2.045
239.64	2.167
240.11	1.970
240.58	1.939
241.05	2.007
241.52	2.122
241.99	1.988
242.46	2.294
242.93	2.159
243.40	2.158
243.87	2.161
244.34	2.197
244.81	2.165
245.28	2.167
245.75	2.209
246.22	2.149
246.69	2.171
247.16	2.234
247.63	2.451
248.10	2.323
248.57	2.137
249.04	2.248
249.51	2.204
249.98	2.181
250.45	2.149
250.92	2.152
251.39	2.089
251.85	1.920
252.32	1.850
252.79	1.748
253.26	1.650
253.73	1.581
254.20	1.471
254.67	1.398
255.14	1.311
255.61	1.247
256.08	1.206
256.55	1.148
257.02	1.093
257.49	1.054
257.95	1.026
258.42	0.991
258.89	0.965
259.36	0.931
259.83	0.904
260.30	0.891
260.77	0.869
261.24	0.845
261.71	0.826
262.17	0.811
262.64	0.793
263.11	0.787
263.58	0.765
264.05	0.752
264.52	0.738
264.99	0.733
265.46	0.718
265.92	0.710
266.39	0.697
266.86	0.689
267.33	0.678
267.80	0.667
268.27	0.664
268.74	0.655
269.20	0.645
269.67	0.640
270.14	0.633
270.61	0.624
271.08	0.616
271.55	0.609
272.01	0.606
272.48	0.596
272.95	0.591
273.42	0.586
273.89	0.577
274.36	0.573
274.82	0.573
275.29	0.565
275.76	0.561
276.23	0.556
276.70	0.555
277.16	0.550
277.63	0.546
278.10	0.541
278.57	0.540
279.04	0.535
279.50	0.531
279.97	0.531
280.44	0.526
280.91	0.524
281.38	0.526
281.84	0.520
282.31	0.517
282.78	0.518
283.25	0.515
283.72	0.514
284.18	0.512
284.65	0.511
285.12	0.512
285.59	0.508
286.05	0.506
286.52	0.505
286.99	0.511
287.46	0.508
287.92	0.507
288.39	0.507
288.86	0.505
289.33	0.497
289.79	0.498
290.26	0.502
290.73	0.499
291.20	0.496
291.66	0.494
292.13	0.492
292.60	0.489
293.07	0.483
293.53	0.479
294.00	0.477
294.47	0.472
294.93	0.466
295.40	0.463
295.87	0.455
296.34	0.447
296.80	0.447
297.27	0.438
297.74	0.428
298.20	0.424
298.67	0.419
299.14	0.413
299.60	0.405
300.07	0.399
300.54	0.394
301.01	0.388
301.47	0.379
301.94	0.376
302.41	0.366
302.87	0.360
303.34	0.359
303.81	0.349
304.27	0.342
304.74	0.335
305.21	0.333
305.67	0.329
306.14	0.325
306.61	0.320
307.07	0.314
307.54	0.310
308.01	0.306
308.47	0.303
308.94	0.301
309.40	0.296
309.87	0.292
310.34	0.290
310.80	0.286
311.27	0.286
311.74	0.281
312.20	0.283
312.67	0.277
313.13	0.275
313.60	0.273
314.07	0.274
314.53	0.272
315.00	0.266
315.47	0.265
315.93	0.265
316.40	0.264
316.86	0.261
317.33	0.262
317.80	0.259
318.26	0.260
318.73	0.258
319.19	0.256
319.66	0.256
320.13	0.255
320.59	0.253
321.06	0.250
321.52	0.253
321.99	0.249
322.45	0.248
322.92	0.248
323.39	0.245
323.85	0.244
324.32	0.242
324.78	0.239
325.25	0.240
325.71	0.238
326.18	0.240
326.64	0.240
327.11	0.233
327.58	0.236
328.04	0.235
328.51	0.231
328.97	0.229
329.44	0.232
329.90	0.227
330.37	0.224
330.83	0.224
331.30	0.223
331.76	0.223
332.23	0.220
332.69	0.223
333.16	0.221
333.62	0.217
334.09	0.217
334.56	0.215
335.02	0.215
335.49	0.211
335.95	0.213
336.42	0.208
336.88	0.207
337.35	0.206
337.81	0.207
338.28	0.203
338.74	0.204
339.20	0.207
339.67	0.201
340.13	0.200
340.60	0.198
341.06	0.197
341.53	0.197
341.99	0.194
342.46	0.194
342.92	0.194
343.39	0.196
343.85	0.189
344.32	0.192
344.78	0.190
345.25	0.190
345.71	0.190
346.17	0.188
346.64	0.191
347.10	0.189
347.57	0.188
348.03	0.184
348.50	0.181
348.96	0.184
349.43	0.182
349.89	0.182
350.35	0.179
350.82	0.182
351.28	0.179
351.75	0.182
352.21	0.177
352.67	0.178
353.14	0.177
353.60	0.177
354.07	0.174
354.53	0.174
355.00	0.174
355.46	0.172
355.92	0.171
356.39	0.170
356.85	0.171
357.31	0.171
357.78	0.169
358.24	0.167
358.71	0.169
359.17	0.166
359.63	0.169
360.10	0.169
360.56	0.160
361.03	0.162
361.49	0.165
361.95	0.161
362.42	0.163
362.88	0.163
363.34	0.161
363.81	0.158
364.27	0.157
364.73	0.161
365.20	0.161
365.66	0.159
366.12	0.159
366.59	0.158
367.05	0.158
367.51	0.155
367.98	0.154
368.44	0.158
368.90	0.154
369.37	0.153
369.83	0.155
370.29	0.154
370.76	0.152
371.22	0.153
371.68	0.151
372.15	0.152
372.61	0.151
373.07	0.153
373.54	0.151
374.00	0.153
374.46	0.152
374.92	0.151
375.39	0.151
375.85	0.150
376.31	0.152
376.78	0.150
377.24	0.153
377.70	0.152
378.16	0.150
378.63	0.150
379.09	0.149
379.55	0.151
380.01	0.147
380.48	0.148
380.94	0.149
381.40	0.150
381.87	0.147
382.33	0.149
382.79	0.148
383.25	0.149
383.72	0.149
384.18	0.146
384.64	0.147
385.10	0.146
385.56	0.145
386.03	0.146
386.49	0.145
386.95	0.144
387.41	0.148
387.88	0.143
388.34	0.143
388.80	0.143
389.26	0.142
389.72	0.148
390.19	0.148
390.65	0.143
391.11	0.146
391.57	0.146
392.04	0.140
392.50	0.143
392.96	0.143
393.42	0.143
393.88	0.143
394.34	0.141
394.81	0.139
395.27	0.139
395.73	0.143
396.19	0.140
396.65	0.143
397.12	0.143
397.58	0.140
398.04	0.142
398.50	0.142
398.96	0.141
399.42	0.143
399.89	0.140
400.35	0.141
400.81	0.142
401.27	0.137
401.73	0.139
402.19	0.137
402.65	0.137
403.12	0.139
403.58	0.136
404.04	0.135
404.50	0.136
404.96	0.135
405.42	0.133
405.88	0.136
406.34	0.135
406.81	0.135
407.27	0.133
407.73	0.132
408.19	0.134
408.65	0.135
409.11	0.133
409.57	0.132
410.03	0.133
410.49	0.130
410.96	0.131
411.42	0.129
411.88	0.131
412.34	0.133
412.80	0.131
413.26	0.131
413.72	0.130
414.18	0.132
414.64	0.127
415.10	0.130
415.56	0.129
416.02	0.128
416.48	0.128
416.95	0.130
417.41	0.130
417.87	0.128
418.33	0.127
418.79	0.128
419.25	0.129
419.71	0.129
420.17	0.127
420.63	0.128
421.09	0.126
421.55	0.127
422.01	0.126
422.47	0.130
422.93	0.127
423.39	0.130
423.85	0.130
424.31	0.128
424.77	0.124
425.23	0.127
425.69	0.125
426.15	0.125
426.61	0.121
427.07	0.124
427.53	0.124
427.99	0.125
428.45	0.125
428.91	0.125
429.37	0.122
429.83	0.124
430.29	0.129
430.75	0.128
431.21	0.126
431.67	0.126
432.13	0.122
432.59	0.123
433.05	0.122
433.51	0.123
433.97	0.124
434.43	0.124
434.89	0.122
435.35	0.121
435.81	0.119
436.27	0.121
436.73	0.124
437.19	0.123
437.65	0.123
438.11	0.122
438.57	0.124
439.03	0.120
439.48	0.118
439.94	0.121
440.40	0.118
440.86	0.119
441.32	0.117
441.78	0.118
442.24	0.118
442.70	0.121
443.16	0.117
443.62	0.121
444.08	0.116
444.54	0.117
444.99	0.118
445.45	0.120
445.91	0.119
446.37	0.118
446.83	0.119
447.29	0.119
447.75	0.115
448.21	0.114
448.67	0.114
449.12	0.118
449.58	0.117
450.04	0.118
450.50	0.112
450.96	0.115
451.42	0.119
451.88	0.117
452.34	0.116
452.79	0.113
453.25	0.116
453.71	0.111
454.17	0.111
454.63	0.113
455.09	0.116
455.55	0.118
456.00	0.115
456.46	0.114
456.92	0.112
457.38	0.114
457.84	0.111
458.30	0.113
458.75	0.115
459.21	0.111
459.67	0.111
460.13	0.112
460.59	0.115
461.04	0.111
461.50	0.112
461.96	0.111
462.42	0.113
462.88	0.113
463.33	0.111
463.79	0.114
464.25	0.112
464.71	0.113
465.17	0.114
465.62	0.117
466.08	0.114
466.54	0.113
467.00	0.115
467.46	0.113
467.91	0.113
468.37	0.113
468.83	0.114
469.29	0.116
469.74	0.112
470.20	0.113
470.66	0.116
471.12	0.115
471.57	0.113
472.03	0.114
472.49	0.117
472.95	0.111
473.40	0.112
473.86	0.115
474.32	0.115
474.78	0.114
475.23	0.113
475.69	0.112
476.15	0.114
476.60	0.114
477.06	0.113
477.52	0.115
477.98	0.114
478.43	0.114
478.89	0.115
479.35	0.112
479.80	0.112
480.26	0.111
480.72	0.113
481.18	0.113
481.63	0.114
482.09	0.112
482.55	0.115
483.00	0.113
483.46	0.112
483.92	0.110
484.37	0.113
484.83	0.112
485.29	0.113
485.74	0.111
486.20	0.114
486.66	0.115
487.11	0.111
487.57	0.111
488.03	0.115
488.48	0.111
488.94	0.114
489.40	0.110
489.85	0.112
490.31	0.112
490.77	0.109
491.22	0.112
491.68	0.112
492.13	0.114
492.59	0.112
493.05	0.111
493.50	0.115
493.96	0.111
494.42	0.111
494.87	0.112
495.33	0.112
495.78	0.111
496.24	0.111
496.70	0.112
497.15	0.111
497.61	0.114
498.06	0.112
498.52	0.112
498.98	0.112
499.43	0.109
499.89	0.110
500.34	0.112
500.80	0.110
501.25	0.109
501.71	0.110
502.17	0.112
502.62	0.109
503.08	0.112
503.53	0.110
503.99	0.108
504.44	0.110
504.90	0.108
505.36	0.111
505.81	0.110
506.27	0.110
506.72	0.110
507.18	0.111
507.63	0.108
508.09	0.110
508.54	0.110
509.00	0.109
509.45	0.109
509.91	0.110
510.36	0.111
510.82	0.108
511.27	0.111
511.73	0.114
512.19	0.111
512.64	0.110
513.10	0.108
513.55	0.108
514.01	0.109
514.46	0.113
514.92	0.111
515.37	0.109
515.83	0.111
516.28	0.109
516.73	0.109
517.19	0.109
517.64	0.111
518.10	0.110
518.55	0.109
519.01	0.109
519.46	0.109
519.92	0.109
520.37	0.108
520.83	0.110
521.28	0.108
521.74	0.108
522.19	0.108
522.65	0.108
523.10	0.109
523.55	0.109
524.01	0.108
524.46	0.108
524.92	0.106
525.37	0.107
525.83	0.109
526.28	0.106
526.73	0.110
527.19	0.109
527.64	0.110
528.10	0.110
528.55	0.110
529.01	0.109
529.46	0.107
529.91	0.110
530.37	0.108
530.82	0.109
531.28	0.109
531.73	0.109
532.18	0.110
532.64	0.108
533.09	0.109
533.54	0.111
534.00	0.109
534.45	0.107
534.91	0.109
535.36	0.109
535.81	0.111
536.27	0.112
536.72	0.111
537.17	0.109
537.63	0.108
538.08	0.110
538.54	0.114
538.99	0.112
539.44	0.110
539.90	0.109
540.35	0.112
540.80	0.112
541.26	0.113
541.71	0.113
542.16	0.113
542.62	0.113
543.07	0.115
543.52	0.112
543.98	0.112
544.43	0.110
544.88	0.112
545.34	0.114
545.79	0.114
546.24	0.113
546.69	0.115
547.15	0.115
547.60	0.117
548.05	0.114
548.51	0.115
548.96	0.114
549.41	0.116
549.86	0.116
550.32	0.116
550.77	0.117
551.22	0.117
551.68	0.118
552.13	0.117
552.58	0.118
553.03	0.119
553.49	0.117
553.94	0.118
554.39	0.120
554.84	0.119
555.30	0.121
555.75	0.123
556.20	0.121
556.65	0.122
557.11	0.125
557.56	0.120
558.01	0.120
558.46	0.123
558.92	0.124
559.37	0.125
559.82	0.126
560.27	0.125
560.72	0.124
561.18	0.126
561.63	0.126
562.08	0.125
562.53	0.127
562.99	0.129
563.44	0.128
563.89	0.128
564.34	0.129
564.79	0.128
565.25	0.131
565.70	0.132
566.15	0.132
566.60	0.133
567.05	0.132
567.50	0.132
567.96	0.135
568.41	0.134
568.86	0.134
569.31	0.134
569.76	0.133
570.21	0.136
570.67	0.137
571.12	0.136
571.57	0.138
572.02	0.139
572.47	0.136
572.92	0.141
573.37	0.143
573.83	0.141
574.28	0.141
574.73	0.142
575.18	0.142
575.63	0.143
576.08	0.144
576.53	0.143
576.98	0.146
577.44	0.146
577.89	0.148
578.34	0.148
578.79	0.148
579.24	0.150
579.69	0.150
580.14	0.150
580.59	0.154
581.04	0.151
581.49	0.153
581.95	0.155
582.40	0.155
582.85	0.156
583.30	0.156
583.75	0.159
584.20	0.160
584.65	0.162
585.10	0.162
585.55	0.163
586.00	0.164
586.45	0.163
586.90	0.166
587.35	0.166
587.80	0.171
588.25	0.170
588.71	0.172
589.16	0.175
589.61	0.174
590.06	0.177
590.51	0.177
590.96	0.178
591.41	0.180
591.86	0.180
592.31	0.185
592.76	0.183
593.21	0.184
593.66	0.186
594.11	0.191
594.56	0.189
595.01	0.192
595.46	0.195
595.91	0.195
596.36	0.196
596.81	0.198
597.26	0.200
597.71	0.200
598.16	0.202
598.61	0.203
599.06	0.205
599.51	0.205
599.96	0.208
600.41	0.212
600.86	0.211
601.31	0.210
601.76	0.215
602.21	0.213
602.65	0.217
603.10	0.217
603.55	0.217
604.00	0.220
604.45	0.220
604.90	0.224
605.35	0.224
605.80	0.225
606.25	0.227
606.70	0.229
607.15	0.227
607.60	0.229
608.05	0.233
608.50	0.233
608.95	0.234
609.39	0.233
609.84	0.236
610.29	0.237
610.74	0.237
611.19	0.239
611.64	0.241
612.09	0.242
612.54	0.244
612.99	0.241
613.44	0.240
613.88	0.243
614.33	0.244
614.78	0.245
615.23	0.247
615.68	0.245
616.13	0.246
616.58	0.247
617.03	0.246
617.47	0.247
617.92	0.249
618.37	0.250
618.82	0.248
619.27	0.249
619.72	0.251
620.17	0.253
620.61	0.254
621.06	0.252
621.51	0.255
621.96	0.252
622.41	0.255
622.86	0.255
623.30	0.255
623.75	0.256
624.20	0.256
624.65	0.259
625.10	0.258
625.54	0.258
625.99	0.260
626.44	0.261
626.89	0.262
627.34	0.265
627.78	0.264
628.23	0.266
628.68	0.267
629.13	0.266
629.58	0.269
630.02	0.268
630.47	0.272
630.92	0.270
631.37	0.271
631.81	0.272
632.26	0.274
632.71	0.277
633.16	0.278
633.61	0.279
634.05	0.280
634.50	0.281
634.95	0.286
635.40	0.284
635.84	0.284
636.29	0.288
636.74	0.291
637.18	0.292
637.63	0.294
638.08	0.295
638.53	0.300
638.97	0.302
639.42	0.305
639.87	0.306
640.32	0.307
640.76	0.310
641.21	0.310
641.66	0.312
642.10	0.315
642.55	0.318
643.00	0.320
643.44	0.320
643.89	0.323
644.34	0.327
644.79	0.329
645.23	0.332
645.68	0.333
646.13	0.337
646.57	0.341
647.02	0.341
647.47	0.344
647.91	0.349
648.36	0.350
648.81	0.353
649.25	0.351
649.70	0.354
650.15	0.355
650.59	0.363
651.04	0.362
651.48	0.364
651.93	0.364
652.38	0.368
652.82	0.368
653.27	0.371
653.72	0.372
654.16	0.372
654.61	0.377
655.06	0.377
655.50	0.378
655.95	0.380
656.39	0.382
656.84	0.387
657.29	0.383
657.73	0.386
658.18	0.387
658.62	0.388
659.07	0.389
659.52	0.390
659.96	0.391
660.41	0.393
660.85	0.393
661.30	0.397
661.74	0.393
662.19	0.395
662.64	0.398
663.08	0.396
663.53	0.396
663.97	0.395
664.42	0.396
664.86	0.395
665.31	0.397
665.75	0.397
666.20	0.392
666.65	0.395
667.09	0.388
667.54	0.388
667.98	0.388
668.43	0.385
668.87	0.386
669.32	0.383
669.76	0.378
670.21	0.376
670.65	0.373
671.10	0.372
671.54	0.365
671.99	0.362
672.43	0.358
672.88	0.354
673.32	0.351
673.77	0.346
674.21	0.344
674.66	0.336
675.10	0.334
675.55	0.326
675.99	0.319
676.44	0.317
676.88	0.312
677.33	0.307
677.77	0.298
678.22	0.292
678.66	0.288
679.11	0.281
679.55	0.272
679.99	0.269
680.44	0.264
680.88	0.257
681.33	0.252
681.77	0.246
682.22	0.240
682.66	0.234
683.11	0.228
683.55	0.220
683.99	0.216
684.44	0.211
684.88	0.207
685.33	0.201
685.77	0.194
686.21	0.192
686.66	0.186
687.10	0.181
687.55	0.175
687.99	0.172
688.44	0.167
688.88	0.166
689.32	0.160
689.77	0.156
690.21	0.153
690.65	0.149
691.10	0.146
691.54	0.141
691.99	0.140
692.43	0.134
692.87	0.132
693.32	0.129
693.76	0.128
694.20	0.126
694.65	0.124
695.09	0.121
695.53	0.117
695.98	0.118
696.42	0.117
696.86	0.109
697.31	0.110
697.75	0.110
698.19	0.106
698.64	0.104
699.08	0.105
699.52	0.106
699.97	0.101
700.41	0.102
700.85	0.100
701.30	0.097
701.74	0.096
702.18	0.096
702.63	0.094
703.07	0.093
703.51	0.095
703.96	0.092
704.40	0.092
704.84	0.092
705.28	0.090
705.73	0.089
706.17	0.091
706.61	0.087
707.06	0.091
707.50	0.087
707.94	0.084
708.38	0.085
708.83	0.086
709.27	0.086
709.71	0.086
710.15	0.083
710.60	0.086
711.04	0.084
711.48	0.085
711.92	0.084
712.37	0.083
712.81	0.081
713.25	0.082
713.69	0.084
714.13	0.079
714.58	0.081
715.02	0.081
715.46	0.078
715.90	0.080
716.35	0.083
716.79	0.080
717.23	0.082
717.67	0.083
718.11	0.082
718.56	0.080
719.00	0.081
719.44	0.081
719.88	0.081
720.32	0.082
720.76	0.082
721.21	0.079
721.65	0.082
722.09	0.082
722.53	0.080
722.97	0.079
723.41	0.078
723.86	0.079
724.30	0.080
724.74	0.080
725.18	0.079
725.62	0.083
726.06	0.083
726.50	0.082
726.95	0.081
727.39	0.080
727.83	0.079
728.27	0.080
728.71	0.082
729.15	0.083
729.59	0.081
730.03	0.082
730.48	0.082
730.92	0.079
731.36	0.082
731.80	0.079
732.24	0.083
732.68	0.082
733.12	0.083
733.56	0.083
734.00	0.084
734.44	0.083
734.89	0.084
735.33	0.084
735.77	0.083
736.21	0.083
736.65	0.082
737.09	0.082
737.53	0.086
737.97	0.083
738.41	0.081
738.85	0.084
739.29	0.086
739.73	0.081
740.17	0.083
740.61	0.082
741.05	0.080
741.49	0.083
741.93	0.081
742.37	0.082
742.81	0.085
743.26	0.083
743.70	0.084
744.14	0.086
744.58	0.085
745.02	0.083
745.46	0.085
745.90	0.083
746.34	0.084
746.78	0.080
747.22	0.080
747.66	0.081
748.10	0.082
748.54	0.082
748.98	0.081
749.42	0.081
749.86	0.083
750.29	0.085
750.73	0.083
751.17	0.082
751.61	0.079
752.05	0.084
752.49	0.081
752.93	0.080
753.37	0.085
753.81	0.082
754.25	0.079
754.69	0.081
755.13	0.081
755.57	0.083
756.01	0.079
756.45	0.080
756.89	0.086
757.33	0.082
757.77	0.080
758.21	0.081
758.64	0.082
759.08	0.080
759.52	0.082
759.96	0.080
760.40	0.079
760.84	0.084
761.28	0.080
761.72	0.080
762.16	0.083
762.60	0.079
763.03	0.079
763.47	0.078
763.91	0.082
764.35	0.080
764.79	0.080
765.23	0.079
765.67	0.084
766.11	0.078
766.54	0.080
766.98	0.081
767.42	0.081
767.86	0.078
768.30	0.079
768.74	0.078
769.17	0.080
769.61	0.082
770.05	0.079
770.49	0.078
770.93	0.080
771.37	0.078
771.80	0.076
772.24	0.084
772.68	0.083
773.12	0.079
773.56	0.082
774.00	0.080
774.43	0.082
774.87	0.078
775.31	0.080
775.75	0.079
776.19	0.079
776.62	0.081
777.06	0.080
777.50	0.081
777.94	0.080
778.37	0.078
778.81	0.081
779.25	0.081
779.69	0.082
780.13	0.078
780.56	0.078
781.00	0.081
781.44	0.080
781.88	0.081
782.31	0.080
782.75	0.082
783.19	0.078
783.63	0.078
784.06	0.079
784.50	0.077
784.94	0.080
785.37	0.080
785.81	0.081
786.25	0.079
786.69	0.078
787.12	0.083
787.56	0.079
788.00	0.078
788.43	0.079
788.87	0.078
789.31	0.079
789.75	0.084
790.18	0.079
790.62	0.080
791.06	0.076
791.49	0.076
791.93	0.079
792.37	0.079
792.80	0.076
793.24	0.076
793.68	0.079
794.11	0.075
794.55	0.077
794.99	0.079
795.42	0.075
795.86	0.079
796.30	0.081
796.73	0.079
797.17	0.077
797.61	0.076
798.04	0.077
798.48	0.082
798.91	0.078
799.35	0.079
799.79	0.079
800.22	0.076
800.66	0.077
801.10	0.078
801.53	0.083
801.97	0.077
802.40	0.078
802.84	0.077
803.28	0.079
803.71	0.081
804.15	0.078
804.58	0.079
805.02	0.078
805.46	0.078
805.89	0.078
806.33	0.077
806.76	0.076
807.20	0.071
807.63	0.078
808.07	0.080
808.51	0.072
808.94	0.078
809.38	0.078
809.81	0.072
810.25	0.077
810.68	0.074
811.12	0.073
811.55	0.074
811.99	0.077
812.42	0.074
812.86	0.075
813.29	0.077
813.73	0.075
814.17	0.078
814.60	0.073
815.04	0.078
815.47	0.076
815.91	0.073
816.34	0.078
816.78	0.077
817.21	0.074
817.65	0.073
818.08	0.076
818.52	0.082
818.95	0.077
819.39	0.073
819.82	0.078
820.25	0.074
820.69	0.078
821.12	0.077
821.56	0.077
821.99	0.077
822.43	0.078
822.86	0.074
823.30	0.073
823.73	0.074
824.17	0.075
824.60	0.080
825.04	0.076
825.47	0.079
825.90	0.075
826.34	0.074
826.77	0.078
827.21	0.079
827.64	0.077
828.08	0.075
828.51	0.081
828.94	0.076
829.38	0.082
829.81	0.081
830.25	0.079
830.68	0.080
831.11	0.081
831.55	0.087
831.98	0.077
832.42	0.082
832.85	0.085
833.28	0.088
833.72	0.083
834.15	0.085
834.58	0.083
835.02	0.088
835.45	0.082
835.88	0.079
836.32	0.086
836.75	0.079
837.19	0.085
837.62	0.085
838.05	0.087
838.49	0.083
838.92	0.084
839.35	0.089
839.79	0.084
840.22	0.085
840.65	0.081
841.09	0.083
841.52	0.083
841.95	0.083
842.39	0.080
842.82	0.083
843.25	0.082
843.68	0.086
844.12	0.089
844.55	0.079
844.98	0.081
845.42	0.083
845.85	0.084
846.28	0.084
846.71	0.087
847.15	0.089
847.58	0.090
848.01	0.081
848.45	0.085
848.88	0.086
849.31	0.081
849.74	0.085
850.18	0.088
850.61	0.082
851.04	0.088
851.47	0.084
851.91	0.084
852.34	0.087
852.77	0.086
853.20	0.093
853.64	0.084
854.07	0.084
854.50	0.081
854.93	0.084
855.36	0.079
855.80	0.084
856.23	0.084
856.66	0.087
857.09	0.087
857.52	0.091
857.96	0.083
858.39	0.089
858.82	0.084
859.25	0.094
859.68	0.087
860.12	0.079
860.55	0.085
860.98	0.088
861.41	0.085
861.84	0.088
862.27	0.089
862.71	0.090
863.14	0.094
863.57	0.081
864.00	0.085
864.43	0.085
864.86	0.089
865.30	0.091
865.73	0.088
866.16	0.094
866.59	0.087
867.02	0.084
867.45	0.084
867.88	0.088
868.31	0.081
868.75	0.093
869.18	0.093
869.61	0.090
870.04	0.092
870.47	0.089
870.90	0.090
871.33	0.089
871.76	0.088
872.19	0.093
872.62	0.095
873.06	0.086
873.49	0.093
873.92	0.091
874.35	0.095
874.78	0.097
875.21	0.093
875.64	0.092
876.07	0.089
876.50	0.094
876.93	0.093
877.36	0.095
877.79	0.090
878.22	0.096
878.65	0.093
879.08	0.095
879.51	0.098
879.94	0.096
880.37	0.089
880.80	0.095
881.23	0.088
881.67	0.094
882.10	0.093
882.53	0.093
882.96	0.092
883.39	0.094
883.82	0.090
884.25	0.092
884.68	0.097
885.11	0.093
885.54	0.100
885.97	0.095
886.39	0.089
886.82	0.098
887.25	0.094
887.68	0.096
888.11	0.089
888.54	0.098
888.97	0.096
889.40	0.089
889.83	0.096
890.26	0.094
890.69	0.095
891.12	0.095
891.55	0.097
891.98	0.091
892.41	0.103
892.84	0.098
893.27	0.097
893.70	0.103
894.13	0.096
894.56	0.094
894.98	0.099
895.41	0.096
895.84	0.095
896.27	0.100
896.70	0.103
897.13	0.101
897.56	0.099
897.99	0.093
898.42	0.103
898.85	0.099
899.27	0.096
899.70	0.096
900.13	0.096
900.56	0.100
900.99	0.102
901.42	0.099
901.85	0.104
902.28	0.100
902.70	0.098
903.13	0.098
903.56	0.101
903.99	0.099
904.42	0.094
904.85	0.095
905.27	0.100
905.70	0.100
906.13	0.100
906.56	0.100
906.99	0.100
907.42	0.101
907.84	0.102
908.27	0.100
908.70	0.103
909.13	0.099
909.56	0.103
909.98	0.095
910.41	0.098
910.84	0.097
911.27	0.102
911.70	0.104
912.12	0.099
912.55	0.097
912.98	0.100
913.41	0.098
913.84	0.097
914.26	0.100
914.69	0.099
915.12	0.100
915.55	0.095
915.97	0.102
916.40	0.099
916.83	0.099
917.26	0.103
917.68	0.103
918.11	0.099
918.54	0.101
918.97	0.100
919.39	0.105
919.82	0.103
920.25	0.096
920.67	0.105
921.10	0.102
921.53	0.101
921.96	0.103
922.38	0.104
922.81	0.102
923.24	0.108
923.66	0.111
924.09	0.108
924.52	0.110
924.94	0.106
925.37	0.106
925.80	0.104
926.22	0.110
926.65	0.108
927.08	0.106
927.50	0.111
927.93	0.114
928.36	0.113
928.78	0.110
929.21	0.115
929.64	0.112
930.06	0.114
930.49	0.113
930.92	0.109
931.34	0.121
931.77	0.121
932.20	0.120
932.62	0.118
933.05	0.118
933.47	0.123
933.90	0.125
934.33	0.121
934.75	0.131
935.18	0.124
935.61	0.128
936.03	0.136
936.46	0.133
936.88	0.132
937.31	0.137
937.73	0.140
938.16	0.136
938.59	0.139
939.01	0.138
939.44	0.147
939.86	0.140
940.29	0.141
940.71	0.144
941.14	0.158
941.57	0.156
941.99	0.155
942.42	0.169
942.84	0.158
943.27	0.171
943.69	0.170
944.12	0.171
944.54	0.174
944.97	0.164
945.39	0.168
945.82	0.169
946.24	0.177
946.67	0.179
947.09	0.183
947.52	0.181
947.94	0.184
948.37	0.183
948.79	0.189
949.22	0.192
949.64	0.187
950.07	0.193
950.49	0.196
950.92	0.200
951.34	0.205
951.77	0.211
952.19	0.210
952.62	0.211
953.04	0.211
953.47	0.214
953.89	0.228
954.32	0.213
954.74	0.235
955.17	0.226
955.59	0.230
956.01	0.238
956.44	0.241
956.86	0.234
957.29	0.244
957.71	0.243
958.14	0.241
958.56	0.249
958.98	0.243
959.41	0.256
959.83	0.251
960.26	0.256
960.68	0.257
961.10	0.257
961.53	0.259
961.95	0.261
962.38	0.260
962.80	0.268
963.22	0.268
963.65	0.258
964.07	0.260
964.50	0.270
964.92	0.267
965.34	0.268
965.77	0.270
966.19	0.266
966.61	0.269
967.04	0.270
967.46	0.270
967.88	0.276
968.31	0.260
968.73	0.270
969.15	0.269
969.58	0.270
970.00	0.272
970.42	0.278
970.85	0.270
971.27	0.269
971.69	0.273
972.12	0.276
972.54	0.275
972.96	0.279
973.39	0.277
973.81	0.276
974.23	0.275
974.65	0.281
975.08	0.275
975.50	0.274
975.92	0.278
976.35	0.268
976.77	0.268
977.19	0.272
977.61	0.271
978.04	0.280
978.46	0.275
978.88	0.278
979.30	0.279
979.73	0.275
980.15	0.274
980.57	0.276
980.99	0.281
981.42	0.284
981.84	0.281
982.26	0.273
982.68	0.276
983.11	0.276
983.53	0.276
983.95	0.264
984.37	0.270
984.79	0.271
985.22	0.270
985.64	0.279
986.06	0.266
986.48	0.274
986.90	0.268
987.33	0.269
987.75	0.272
988.17	0.266
988.59	0.272
989.01	0.272
989.43	0.256
989.86	0.264
990.28	0.268
990.70	0.270
991.12	0.262
991.54	0.256
991.96	0.262
992.39	0.267
992.81	0.261
993.23	0.258
993.65	0.264
994.07	0.252
994.49	0.261
994.91	0.258
995.34	0.254
995.76	0.253
996.18	0.259
996.60	0.256
997.02	0.254
997.44	0.245
997.86	0.250
998.28	0.245
998.70	0.252
999.12	0.256
999.55	0.257
999.97	0.249
1000.39	0.255
1000.81	0.252
1001.23	0.242
1001.65	0.246
1002.07	0.243
1002.49	0.232
1002.91	0.245
1003.33	0.231
1003.75	0.250
1004.17	0.256
1004.59	0.240
1005.01	0.251
1005.43	0.244
1005.85	0.234
1006.28	0.237
1006.70	0.234
1007.12	0.231
1007.54	0.239
1007.96	0.231
1008.38	0.238
1008.80	0.229
1009.22	0.236
1009.64	0.229
1010.06	0.234
1010.48	0.229
1010.90	0.230
1011.32	0.231
1011.74	0.229
1012.16	0.225
1012.58	0.215
1013.00	0.227
1013.42	0.213
1013.84	0.210
1014.26	0.208
1014.67	0.230
1015.09	0.214
1015.51	0.211
1015.93	0.210
1016.35	0.225
1016.77	0.222
1017.19	0.205
1017.61	0.214
1018.03	0.222
1018.45	0.220
1018.87	0.218
1019.29	0.214
1019.71	0.198
1020.13	0.220
1020.55	0.221
1020.97	0.210
1021.38	0.205
1021.80	0.207
1022.22	0.202
1022.64	0.201
1023.06	0.187
1023.48	0.184
1023.90	0.199
1024.32	0.202
1024.74	0.191
1025.15	0.187
1025.57	0.183
1025.99	0.189
1026.41	0.184
1026.83	0.194
1027.25	0.198
1027.67	0.177
1028.08	0.177
1028.50	0.190
1028.92	0.186
1029.34	0.179
1029.76	0.175
1030.18	0.178
1030.60	0.177
1031.01	0.171
1031.43	0.177
1031.85	0.174
1032.27	0.168
1032.69	0.166
1033.10	0.173
1033.52	0.175
1033.94	0.167
1034.36	0.171
1034.78	0.176
1035.19	0.164
1035.61	0.157
1036.03	0.157
1036.45	0.165
1036.87	0.160
1037.28	0.186
1037.70	0.168
1038.12	0.156
1038.54	0.157
1038.95	0.164
1039.37	0.173
1039.79	0.164
1040.21	0.166
1040.62	0.155
1041.04	0.168
1041.46	0.137
1041.88	0.155
1042.29	0.180
1042.71	0.158
1043.13	0.163
1043.55	0.141
1043.96	0.140
1044.38	0.152
1044.80	0.148
1045.21	0.161
1045.63	0.154
1046.05	0.141
1046.47	0.146
1046.88	0.151
1047.30	0.151
1047.72	0.158
1048.13	0.156
1048.55	0.151
1048.97	0.147
1049.38	0.141
1049.80	0.120
1050.22	0.159
1050.63	0.111
1051.05	0.128
1051.47	0.157
1051.88	0.147
1052.30	0.155
1052.72	0.128
1053.13	0.159
1053.55	0.178
1053.97	0.169
1054.38	0.141
1054.80	0.128
1055.21	0.142
1055.63	0.160
1056.05	0.158
1056.46	0.135
1056.88	0.209
1057.29	0.134
1057.71	0.156
1058.13	0.165
1058.54	0.150
1058.96	0.142
1059.37	0.176
1059.79	0.174
1060.21	0.168
1060.62	0.187
1061.04	0.146
1061.45	0.189
1061.87	0.172
1062.28	0.190
1062.70	0.201
1063.12	0.145
1063.53	0.198
1063.95	0.148
1064.36	0.153
1064.78	0.163
1065.19	0.151
1065.61	0.145
1066.02	0.181
1066.44	0.192
1066.85	0.161
1067.27	0.275
1067.68	0.112
1068.10	0.155
1068.51	0.109
1068.93	0.144
1069.35	0.189
1069.76	0.212
1070.17	0.199
1070.59	0.269
1071.00	0.360
1071.42	0.143
1071.83	0.235
1072.25	0.212
1072.66	0.185
1073.08	0.269
1073.49	0.322
1073.91	0.205
1074.32	0.167
1074.74	0.086
1075.15	0.133
1075.57	0.388
1075.98	0.103
1076.40	0.509
1076.81	0.127
1077.22	0.224
1077.64	0.743
1078.05	0.365
1078.47	0.161
1078.88	0.383
1079.30	0.199
1079.71	0.512
1080.12	0.528
1080.54	0.258
1080.95	0.239
1081.37	0.220
1081.78	0.728
1082.19	0.507
1082.61	0.129
1083.02	0.397
1083.44	0.681
1083.85	0.410
1084.26	0.155
1084.68	0.525
1085.09	0.132
1085.50	0.901
1085.92	0.578
1086.33	0.773
1086.74	1.222
1087.16	0.515
1087.57	0.709
1087.98	0.570
1088.40	0.185
1088.81	0.281
1089.22	0.196
1089.64	1.192
1090.05	0.631
1090.46	0.446
1090.88	0.499
1091.29	0.586
1091.70	0.635
1092.12	0.611
1092.53	-0.000
1092.94	-0.000
1093.36	-0.000
1093.77	-0.000
1094.18	0.607
1094.59	0.243
1095.01	0.850
1095.42	-0.000
1095.83	-0.000
1096.25	0.409
1096.66	0.540
1097.07	-0.000
1097.48	0.325
1097.90	-0.000
1098.31	0.413
1098.72	0.162
1099.13	0.848
>>>>>End Processed Spectral Data<<<<<
