SpectraSuite Data File
++++++++++++++++++++++++++++++++++++
Date: Tue Jul 11 13:54:59 CEST 2017
User: IPCE
Dark Spectrum Present: Yes
Reference Spectrum Present: Yes
Number of Sampled Component Spectra: 1
Spectrometers: HR+C0708
Integration Time (usec): 1000 (HR+C0708)
Spectra Averaged: 10 (HR+C0708)
Boxcar Smoothing: 0 (HR+C0708)
Correct for Electrical Dark: No (HR+C0708)
Strobe/Lamp Enabled: No (HR+C0708)
Correct for Detector Non-linearity: No (HR+C0708)
Correct for Stray Light: No (HR+C0708)
Number of Pixels in Processed Spectrum: 2048
>>>>>Begin Processed Spectral Data<<<<<
188.76	0.146
189.23	0.165
189.70	0.533
190.17	0.753
190.64	0.408
191.12	0.063
191.59	0.171
192.06	0.094
192.53	0.224
193.01	-0.000
193.48	0.390
193.95	-0.111
194.42	0.361
194.90	0.097
195.37	-0.079
195.84	0.284
196.31	-0.000
196.78	0.607
197.26	0.145
197.73	0.197
198.20	0.095
198.67	0.046
199.14	0.047
199.62	-0.000
200.09	0.472
200.56	0.196
201.03	0.473
201.50	0.426
201.97	0.364
202.45	0.296
202.92	0.331
203.39	0.408
203.86	0.326
204.33	0.305
204.80	0.487
205.28	0.606
205.75	0.250
206.22	0.449
206.69	0.350
207.16	0.256
207.63	0.344
208.11	0.359
208.58	0.313
209.05	0.571
209.52	0.221
209.99	0.462
210.46	0.338
210.93	0.340
211.41	0.400
211.88	0.379
212.35	0.332
212.82	0.314
213.29	0.581
213.76	0.381
214.23	0.395
214.70	0.403
215.18	0.608
215.65	0.560
216.12	0.326
216.59	0.528
217.06	0.587
217.53	0.360
218.00	0.361
218.47	0.700
218.94	0.407
219.41	0.379
219.89	0.483
220.36	0.428
220.83	0.292
221.30	0.452
221.77	0.536
222.24	0.445
222.71	0.458
223.18	0.416
223.65	0.642
224.12	0.503
224.59	0.442
225.06	0.598
225.54	0.731
226.01	0.615
226.48	0.532
226.95	1.018
227.42	0.796
227.89	0.776
228.36	0.835
228.83	0.921
229.30	0.984
229.77	1.095
230.24	1.136
230.71	1.183
231.18	1.179
231.65	1.028
232.12	1.344
232.59	1.385
233.06	1.239
233.53	1.447
234.00	1.454
234.47	1.609
234.94	1.531
235.41	1.656
235.88	2.138
236.35	1.652
236.82	1.711
237.29	2.075
237.76	1.961
238.23	1.817
238.70	1.922
239.17	1.990
239.64	2.022
240.11	1.947
240.58	1.993
241.05	2.020
241.52	1.985
241.99	2.028
242.46	2.193
242.93	2.214
243.40	2.183
243.87	2.284
244.34	2.274
244.81	2.082
245.28	2.167
245.75	2.262
246.22	2.084
246.69	2.189
247.16	2.240
247.63	2.475
248.10	2.541
248.57	2.137
249.04	2.372
249.51	2.233
249.98	2.339
250.45	2.168
250.92	2.193
251.39	2.247
251.85	2.106
252.32	1.995
252.79	2.017
253.26	1.888
253.73	1.842
254.20	1.770
254.67	1.678
255.14	1.587
255.61	1.550
256.08	1.518
256.55	1.449
257.02	1.410
257.49	1.367
257.95	1.340
258.42	1.306
258.89	1.281
259.36	1.263
259.83	1.224
260.30	1.197
260.77	1.179
261.24	1.158
261.71	1.136
262.17	1.111
262.64	1.101
263.11	1.086
263.58	1.064
264.05	1.050
264.52	1.042
264.99	1.026
265.46	1.016
265.92	1.008
266.39	0.994
266.86	0.985
267.33	0.968
267.80	0.960
268.27	0.955
268.74	0.948
269.20	0.938
269.67	0.926
270.14	0.923
270.61	0.911
271.08	0.901
271.55	0.896
272.01	0.883
272.48	0.882
272.95	0.881
273.42	0.878
273.89	0.863
274.36	0.859
274.82	0.858
275.29	0.852
275.76	0.845
276.23	0.844
276.70	0.836
277.16	0.836
277.63	0.831
278.10	0.831
278.57	0.825
279.04	0.818
279.50	0.816
279.97	0.825
280.44	0.814
280.91	0.810
281.38	0.812
281.84	0.816
282.31	0.808
282.78	0.809
283.25	0.806
283.72	0.809
284.18	0.810
284.65	0.807
285.12	0.807
285.59	0.802
286.05	0.806
286.52	0.807
286.99	0.809
287.46	0.808
287.92	0.805
288.39	0.808
288.86	0.807
289.33	0.801
289.79	0.809
290.26	0.810
290.73	0.801
291.20	0.801
291.66	0.804
292.13	0.794
292.60	0.793
293.07	0.789
293.53	0.790
294.00	0.775
294.47	0.771
294.93	0.764
295.40	0.759
295.87	0.748
296.34	0.746
296.80	0.734
297.27	0.725
297.74	0.717
298.20	0.708
298.67	0.701
299.14	0.690
299.60	0.681
300.07	0.674
300.54	0.665
301.01	0.656
301.47	0.644
301.94	0.634
302.41	0.630
302.87	0.616
303.34	0.609
303.81	0.601
304.27	0.595
304.74	0.584
305.21	0.575
305.67	0.573
306.14	0.563
306.61	0.558
307.07	0.549
307.54	0.544
308.01	0.539
308.47	0.538
308.94	0.528
309.40	0.524
309.87	0.516
310.34	0.517
310.80	0.512
311.27	0.504
311.74	0.500
312.20	0.500
312.67	0.497
313.13	0.491
313.60	0.486
314.07	0.486
314.53	0.480
315.00	0.477
315.47	0.479
315.93	0.475
316.40	0.466
316.86	0.465
317.33	0.465
317.80	0.460
318.26	0.459
318.73	0.455
319.19	0.455
319.66	0.449
320.13	0.448
320.59	0.442
321.06	0.440
321.52	0.437
321.99	0.437
322.45	0.433
322.92	0.431
323.39	0.427
323.85	0.422
324.32	0.421
324.78	0.418
325.25	0.417
325.71	0.412
326.18	0.410
326.64	0.410
327.11	0.410
327.58	0.406
328.04	0.404
328.51	0.397
328.97	0.400
329.44	0.399
329.90	0.395
330.37	0.394
330.83	0.388
331.30	0.390
331.76	0.385
332.23	0.385
332.69	0.383
333.16	0.377
333.62	0.374
334.09	0.378
334.56	0.377
335.02	0.374
335.49	0.374
335.95	0.372
336.42	0.368
336.88	0.366
337.35	0.371
337.81	0.367
338.28	0.362
338.74	0.365
339.20	0.364
339.67	0.363
340.13	0.363
340.60	0.359
341.06	0.361
341.53	0.356
341.99	0.353
342.46	0.353
342.92	0.356
343.39	0.352
343.85	0.345
344.32	0.345
344.78	0.347
345.25	0.341
345.71	0.343
346.17	0.340
346.64	0.339
347.10	0.332
347.57	0.329
348.03	0.326
348.50	0.317
348.96	0.317
349.43	0.315
349.89	0.311
350.35	0.300
350.82	0.304
351.28	0.291
351.75	0.292
352.21	0.282
352.67	0.278
353.14	0.275
353.60	0.261
354.07	0.253
354.53	0.251
355.00	0.239
355.46	0.231
355.92	0.219
356.39	0.212
356.85	0.201
357.31	0.192
357.78	0.186
358.24	0.173
358.71	0.168
359.17	0.157
359.63	0.148
360.10	0.141
360.56	0.129
361.03	0.125
361.49	0.119
361.95	0.111
362.42	0.108
362.88	0.105
363.34	0.100
363.81	0.098
364.27	0.094
364.73	0.094
365.20	0.095
365.66	0.091
366.12	0.092
366.59	0.087
367.05	0.087
367.51	0.087
367.98	0.085
368.44	0.083
368.90	0.082
369.37	0.082
369.83	0.083
370.29	0.082
370.76	0.081
371.22	0.080
371.68	0.078
372.15	0.079
372.61	0.080
373.07	0.082
373.54	0.078
374.00	0.082
374.46	0.080
374.92	0.079
375.39	0.078
375.85	0.077
376.31	0.075
376.78	0.079
377.24	0.076
377.70	0.078
378.16	0.077
378.63	0.078
379.09	0.075
379.55	0.075
380.01	0.074
380.48	0.077
380.94	0.075
381.40	0.075
381.87	0.076
382.33	0.075
382.79	0.073
383.25	0.076
383.72	0.074
384.18	0.072
384.64	0.074
385.10	0.072
385.56	0.073
386.03	0.073
386.49	0.076
386.95	0.070
387.41	0.074
387.88	0.072
388.34	0.070
388.80	0.072
389.26	0.069
389.72	0.073
390.19	0.073
390.65	0.069
391.11	0.071
391.57	0.072
392.04	0.070
392.50	0.071
392.96	0.070
393.42	0.070
393.88	0.072
394.34	0.071
394.81	0.069
395.27	0.068
395.73	0.070
396.19	0.068
396.65	0.070
397.12	0.067
397.58	0.069
398.04	0.068
398.50	0.068
398.96	0.068
399.42	0.070
399.89	0.069
400.35	0.069
400.81	0.067
401.27	0.066
401.73	0.068
402.19	0.065
402.65	0.064
403.12	0.065
403.58	0.065
404.04	0.064
404.50	0.063
404.96	0.063
405.42	0.063
405.88	0.063
406.34	0.063
406.81	0.064
407.27	0.059
407.73	0.061
408.19	0.060
408.65	0.060
409.11	0.058
409.57	0.061
410.03	0.061
410.49	0.059
410.96	0.058
411.42	0.056
411.88	0.058
412.34	0.059
412.80	0.058
413.26	0.058
413.72	0.060
414.18	0.055
414.64	0.055
415.10	0.058
415.56	0.056
416.02	0.054
416.48	0.059
416.95	0.058
417.41	0.057
417.87	0.057
418.33	0.056
418.79	0.056
419.25	0.056
419.71	0.059
420.17	0.057
420.63	0.056
421.09	0.055
421.55	0.054
422.01	0.054
422.47	0.056
422.93	0.057
423.39	0.059
423.85	0.057
424.31	0.057
424.77	0.054
425.23	0.055
425.69	0.053
426.15	0.053
426.61	0.055
427.07	0.054
427.53	0.053
427.99	0.054
428.45	0.054
428.91	0.053
429.37	0.054
429.83	0.055
430.29	0.056
430.75	0.056
431.21	0.054
431.67	0.055
432.13	0.052
432.59	0.053
433.05	0.055
433.51	0.056
433.97	0.053
434.43	0.055
434.89	0.052
435.35	0.051
435.81	0.049
436.27	0.050
436.73	0.055
437.19	0.052
437.65	0.050
438.11	0.053
438.57	0.054
439.03	0.047
439.48	0.048
439.94	0.052
440.40	0.050
440.86	0.050
441.32	0.048
441.78	0.054
442.24	0.049
442.70	0.051
443.16	0.051
443.62	0.055
444.08	0.050
444.54	0.049
444.99	0.052
445.45	0.049
445.91	0.050
446.37	0.051
446.83	0.053
447.29	0.050
447.75	0.049
448.21	0.050
448.67	0.047
449.12	0.050
449.58	0.049
450.04	0.051
450.50	0.051
450.96	0.050
451.42	0.051
451.88	0.050
452.34	0.050
452.79	0.048
453.25	0.050
453.71	0.050
454.17	0.046
454.63	0.047
455.09	0.052
455.55	0.053
456.00	0.050
456.46	0.049
456.92	0.047
457.38	0.050
457.84	0.048
458.30	0.051
458.75	0.052
459.21	0.049
459.67	0.053
460.13	0.050
460.59	0.050
461.04	0.049
461.50	0.050
461.96	0.050
462.42	0.048
462.88	0.050
463.33	0.049
463.79	0.051
464.25	0.050
464.71	0.051
465.17	0.049
465.62	0.050
466.08	0.050
466.54	0.052
467.00	0.051
467.46	0.047
467.91	0.048
468.37	0.050
468.83	0.049
469.29	0.050
469.74	0.050
470.20	0.051
470.66	0.052
471.12	0.053
471.57	0.052
472.03	0.049
472.49	0.052
472.95	0.051
473.40	0.051
473.86	0.051
474.32	0.051
474.78	0.052
475.23	0.053
475.69	0.049
476.15	0.050
476.60	0.052
477.06	0.053
477.52	0.050
477.98	0.052
478.43	0.050
478.89	0.052
479.35	0.051
479.80	0.051
480.26	0.050
480.72	0.050
481.18	0.054
481.63	0.052
482.09	0.050
482.55	0.054
483.00	0.055
483.46	0.051
483.92	0.048
484.37	0.053
484.83	0.051
485.29	0.054
485.74	0.052
486.20	0.053
486.66	0.056
487.11	0.052
487.57	0.052
488.03	0.055
488.48	0.053
488.94	0.054
489.40	0.051
489.85	0.054
490.31	0.052
490.77	0.050
491.22	0.053
491.68	0.054
492.13	0.052
492.59	0.051
493.05	0.054
493.50	0.054
493.96	0.053
494.42	0.053
494.87	0.053
495.33	0.053
495.78	0.052
496.24	0.053
496.70	0.055
497.15	0.053
497.61	0.054
498.06	0.054
498.52	0.054
498.98	0.055
499.43	0.052
499.89	0.053
500.34	0.055
500.80	0.053
501.25	0.053
501.71	0.053
502.17	0.053
502.62	0.054
503.08	0.054
503.53	0.054
503.99	0.053
504.44	0.054
504.90	0.050
505.36	0.053
505.81	0.054
506.27	0.054
506.72	0.054
507.18	0.054
507.63	0.051
508.09	0.053
508.54	0.053
509.00	0.051
509.45	0.051
509.91	0.053
510.36	0.054
510.82	0.052
511.27	0.054
511.73	0.055
512.19	0.052
512.64	0.051
513.10	0.052
513.55	0.052
514.01	0.051
514.46	0.053
514.92	0.052
515.37	0.053
515.83	0.052
516.28	0.052
516.73	0.052
517.19	0.052
517.64	0.051
518.10	0.053
518.55	0.051
519.01	0.054
519.46	0.052
519.92	0.053
520.37	0.053
520.83	0.055
521.28	0.053
521.74	0.052
522.19	0.051
522.65	0.052
523.10	0.055
523.55	0.051
524.01	0.052
524.46	0.054
524.92	0.052
525.37	0.051
525.83	0.054
526.28	0.053
526.73	0.052
527.19	0.050
527.64	0.052
528.10	0.055
528.55	0.053
529.01	0.056
529.46	0.053
529.91	0.053
530.37	0.055
530.82	0.052
531.28	0.053
531.73	0.055
532.18	0.055
532.64	0.053
533.09	0.057
533.54	0.055
534.00	0.056
534.45	0.055
534.91	0.055
535.36	0.056
535.81	0.057
536.27	0.058
536.72	0.057
537.17	0.057
537.63	0.056
538.08	0.058
538.54	0.058
538.99	0.059
539.44	0.060
539.90	0.057
540.35	0.057
540.80	0.059
541.26	0.061
541.71	0.062
542.16	0.063
542.62	0.061
543.07	0.063
543.52	0.062
543.98	0.059
544.43	0.060
544.88	0.062
545.34	0.064
545.79	0.061
546.24	0.065
546.69	0.065
547.15	0.066
547.60	0.065
548.05	0.065
548.51	0.067
548.96	0.066
549.41	0.067
549.86	0.066
550.32	0.070
550.77	0.068
551.22	0.070
551.68	0.071
552.13	0.069
552.58	0.072
553.03	0.071
553.49	0.070
553.94	0.074
554.39	0.075
554.84	0.073
555.30	0.074
555.75	0.075
556.20	0.074
556.65	0.077
557.11	0.079
557.56	0.076
558.01	0.079
558.46	0.078
558.92	0.079
559.37	0.082
559.82	0.081
560.27	0.082
560.72	0.082
561.18	0.084
561.63	0.083
562.08	0.083
562.53	0.085
562.99	0.088
563.44	0.087
563.89	0.087
564.34	0.087
564.79	0.088
565.25	0.089
565.70	0.092
566.15	0.094
566.60	0.092
567.05	0.094
567.50	0.096
567.96	0.094
568.41	0.094
568.86	0.097
569.31	0.097
569.76	0.100
570.21	0.099
570.67	0.101
571.12	0.101
571.57	0.103
572.02	0.103
572.47	0.103
572.92	0.105
573.37	0.105
573.83	0.107
574.28	0.108
574.73	0.108
575.18	0.109
575.63	0.111
576.08	0.110
576.53	0.113
576.98	0.113
577.44	0.115
577.89	0.115
578.34	0.118
578.79	0.119
579.24	0.121
579.69	0.121
580.14	0.123
580.59	0.125
581.04	0.125
581.49	0.126
581.95	0.131
582.40	0.129
582.85	0.130
583.30	0.132
583.75	0.133
584.20	0.136
584.65	0.138
585.10	0.140
585.55	0.140
586.00	0.144
586.45	0.144
586.90	0.148
587.35	0.147
587.80	0.149
588.25	0.152
588.71	0.154
589.16	0.156
589.61	0.157
590.06	0.161
590.51	0.164
590.96	0.165
591.41	0.166
591.86	0.168
592.31	0.170
592.76	0.172
593.21	0.174
593.66	0.177
594.11	0.181
594.56	0.181
595.01	0.181
595.46	0.188
595.91	0.188
596.36	0.192
596.81	0.191
597.26	0.195
597.71	0.198
598.16	0.200
598.61	0.201
599.06	0.202
599.51	0.207
599.96	0.210
600.41	0.212
600.86	0.213
601.31	0.212
601.76	0.220
602.21	0.218
602.65	0.222
603.10	0.226
603.55	0.228
604.00	0.230
604.45	0.230
604.90	0.234
605.35	0.236
605.80	0.237
606.25	0.241
606.70	0.243
607.15	0.241
607.60	0.244
608.05	0.246
608.50	0.248
608.95	0.249
609.39	0.250
609.84	0.254
610.29	0.254
610.74	0.256
611.19	0.258
611.64	0.261
612.09	0.261
612.54	0.262
612.99	0.261
613.44	0.264
613.88	0.264
614.33	0.267
614.78	0.267
615.23	0.270
615.68	0.267
616.13	0.270
616.58	0.270
617.03	0.270
617.47	0.271
617.92	0.272
618.37	0.273
618.82	0.276
619.27	0.274
619.72	0.276
620.17	0.276
620.61	0.273
621.06	0.276
621.51	0.279
621.96	0.277
622.41	0.281
622.86	0.282
623.30	0.280
623.75	0.280
624.20	0.281
624.65	0.283
625.10	0.286
625.54	0.284
625.99	0.285
626.44	0.289
626.89	0.290
627.34	0.289
627.78	0.291
628.23	0.291
628.68	0.295
629.13	0.294
629.58	0.298
630.02	0.298
630.47	0.301
630.92	0.301
631.37	0.301
631.81	0.304
632.26	0.305
632.71	0.311
633.16	0.310
633.61	0.314
634.05	0.317
634.50	0.318
634.95	0.320
635.40	0.326
635.84	0.323
636.29	0.328
636.74	0.331
637.18	0.334
637.63	0.338
638.08	0.337
638.53	0.343
638.97	0.346
639.42	0.348
639.87	0.352
640.32	0.355
640.76	0.359
641.21	0.361
641.66	0.366
642.10	0.368
642.55	0.370
643.00	0.374
643.44	0.379
643.89	0.383
644.34	0.386
644.79	0.387
645.23	0.393
645.68	0.398
646.13	0.401
646.57	0.405
647.02	0.411
647.47	0.414
647.91	0.420
648.36	0.425
648.81	0.424
649.25	0.428
649.70	0.430
650.15	0.434
650.59	0.439
651.04	0.442
651.48	0.446
651.93	0.447
652.38	0.452
652.82	0.455
653.27	0.460
653.72	0.465
654.16	0.469
654.61	0.469
655.06	0.471
655.50	0.473
655.95	0.476
656.39	0.480
656.84	0.484
657.29	0.485
657.73	0.485
658.18	0.494
658.62	0.494
659.07	0.494
659.52	0.497
659.96	0.498
660.41	0.505
660.85	0.502
661.30	0.504
661.74	0.508
662.19	0.509
662.64	0.507
663.08	0.513
663.53	0.511
663.97	0.511
664.42	0.514
664.86	0.512
665.31	0.513
665.75	0.513
666.20	0.510
666.65	0.512
667.09	0.509
667.54	0.504
667.98	0.505
668.43	0.506
668.87	0.500
669.32	0.495
669.76	0.494
670.21	0.493
670.65	0.487
671.10	0.479
671.54	0.477
671.99	0.472
672.43	0.462
672.88	0.458
673.32	0.455
673.77	0.444
674.21	0.439
674.66	0.430
675.10	0.424
675.55	0.415
675.99	0.405
676.44	0.401
676.88	0.389
677.33	0.384
677.77	0.372
678.22	0.363
678.66	0.355
679.11	0.346
679.55	0.335
679.99	0.326
680.44	0.316
680.88	0.306
681.33	0.299
681.77	0.286
682.22	0.276
682.66	0.268
683.11	0.260
683.55	0.248
683.99	0.244
684.44	0.234
684.88	0.227
685.33	0.218
685.77	0.210
686.21	0.204
686.66	0.193
687.10	0.185
687.55	0.180
687.99	0.172
688.44	0.166
688.88	0.160
689.32	0.154
689.77	0.148
690.21	0.141
690.65	0.137
691.10	0.133
691.54	0.124
691.99	0.120
692.43	0.118
692.87	0.113
693.32	0.105
693.76	0.103
694.20	0.101
694.65	0.096
695.09	0.093
695.53	0.089
695.98	0.086
696.42	0.082
696.86	0.077
697.31	0.076
697.75	0.075
698.19	0.070
698.64	0.070
699.08	0.068
699.52	0.066
699.97	0.062
700.41	0.063
700.85	0.060
701.30	0.057
701.74	0.055
702.18	0.056
702.63	0.053
703.07	0.049
703.51	0.051
703.96	0.050
704.40	0.048
704.84	0.046
705.28	0.045
705.73	0.045
706.17	0.044
706.61	0.042
707.06	0.041
707.50	0.041
707.94	0.038
708.38	0.039
708.83	0.037
709.27	0.039
709.71	0.036
710.15	0.037
710.60	0.038
711.04	0.036
711.48	0.034
711.92	0.034
712.37	0.034
712.81	0.033
713.25	0.031
713.69	0.037
714.13	0.028
714.58	0.029
715.02	0.033
715.46	0.030
715.90	0.029
716.35	0.031
716.79	0.029
717.23	0.030
717.67	0.032
718.11	0.029
718.56	0.031
719.00	0.028
719.44	0.030
719.88	0.027
720.32	0.029
720.76	0.029
721.21	0.032
721.65	0.029
722.09	0.030
722.53	0.028
722.97	0.027
723.41	0.029
723.86	0.030
724.30	0.030
724.74	0.029
725.18	0.027
725.62	0.033
726.06	0.030
726.50	0.033
726.95	0.028
727.39	0.029
727.83	0.031
728.27	0.029
728.71	0.029
729.15	0.032
729.59	0.030
730.03	0.031
730.48	0.032
730.92	0.028
731.36	0.031
731.80	0.028
732.24	0.030
732.68	0.030
733.12	0.033
733.56	0.032
734.00	0.031
734.44	0.034
734.89	0.030
735.33	0.033
735.77	0.031
736.21	0.032
736.65	0.031
737.09	0.031
737.53	0.035
737.97	0.036
738.41	0.031
738.85	0.034
739.29	0.035
739.73	0.031
740.17	0.030
740.61	0.032
741.05	0.029
741.49	0.032
741.93	0.031
742.37	0.031
742.81	0.032
743.26	0.031
743.70	0.031
744.14	0.033
744.58	0.033
745.02	0.031
745.46	0.034
745.90	0.032
746.34	0.033
746.78	0.031
747.22	0.033
747.66	0.031
748.10	0.032
748.54	0.030
748.98	0.033
749.42	0.032
749.86	0.034
750.29	0.033
750.73	0.032
751.17	0.031
751.61	0.032
752.05	0.034
752.49	0.030
752.93	0.029
753.37	0.032
753.81	0.033
754.25	0.029
754.69	0.032
755.13	0.031
755.57	0.030
756.01	0.029
756.45	0.030
756.89	0.036
757.33	0.032
757.77	0.029
758.21	0.032
758.64	0.034
759.08	0.030
759.52	0.033
759.96	0.029
760.40	0.029
760.84	0.032
761.28	0.033
761.72	0.030
762.16	0.030
762.60	0.029
763.03	0.030
763.47	0.031
763.91	0.033
764.35	0.031
764.79	0.032
765.23	0.030
765.67	0.032
766.11	0.030
766.54	0.029
766.98	0.029
767.42	0.031
767.86	0.027
768.30	0.030
768.74	0.028
769.17	0.030
769.61	0.032
770.05	0.029
770.49	0.029
770.93	0.032
771.37	0.030
771.80	0.030
772.24	0.033
772.68	0.031
773.12	0.030
773.56	0.032
774.00	0.032
774.43	0.034
774.87	0.029
775.31	0.032
775.75	0.035
776.19	0.031
776.62	0.032
777.06	0.029
777.50	0.029
777.94	0.033
778.37	0.030
778.81	0.028
779.25	0.035
779.69	0.029
780.13	0.028
780.56	0.030
781.00	0.030
781.44	0.027
781.88	0.032
782.31	0.031
782.75	0.031
783.19	0.030
783.63	0.030
784.06	0.028
784.50	0.031
784.94	0.031
785.37	0.032
785.81	0.029
786.25	0.028
786.69	0.032
787.12	0.029
787.56	0.028
788.00	0.030
788.43	0.027
788.87	0.030
789.31	0.032
789.75	0.036
790.18	0.034
790.62	0.032
791.06	0.030
791.49	0.028
791.93	0.031
792.37	0.030
792.80	0.027
793.24	0.030
793.68	0.033
794.11	0.030
794.55	0.030
794.99	0.030
795.42	0.027
795.86	0.030
796.30	0.030
796.73	0.031
797.17	0.031
797.61	0.030
798.04	0.031
798.48	0.031
798.91	0.030
799.35	0.030
799.79	0.030
800.22	0.026
800.66	0.027
801.10	0.028
801.53	0.030
801.97	0.030
802.40	0.026
802.84	0.030
803.28	0.031
803.71	0.030
804.15	0.031
804.58	0.033
805.02	0.032
805.46	0.028
805.89	0.033
806.33	0.032
806.76	0.031
807.20	0.028
807.63	0.028
808.07	0.029
808.51	0.025
808.94	0.031
809.38	0.035
809.81	0.025
810.25	0.030
810.68	0.034
811.12	0.030
811.55	0.029
811.99	0.029
812.42	0.026
812.86	0.032
813.29	0.031
813.73	0.029
814.17	0.036
814.60	0.034
815.04	0.028
815.47	0.029
815.91	0.029
816.34	0.029
816.78	0.031
817.21	0.031
817.65	0.028
818.08	0.032
818.52	0.035
818.95	0.033
819.39	0.028
819.82	0.031
820.25	0.028
820.69	0.029
821.12	0.030
821.56	0.033
821.99	0.032
822.43	0.033
822.86	0.026
823.30	0.031
823.73	0.028
824.17	0.028
824.60	0.032
825.04	0.033
825.47	0.031
825.90	0.033
826.34	0.032
826.77	0.035
827.21	0.033
827.64	0.030
828.08	0.033
828.51	0.032
828.94	0.031
829.38	0.034
829.81	0.036
830.25	0.033
830.68	0.035
831.11	0.038
831.55	0.040
831.98	0.031
832.42	0.035
832.85	0.039
833.28	0.037
833.72	0.038
834.15	0.038
834.58	0.040
835.02	0.036
835.45	0.031
835.88	0.033
836.32	0.041
836.75	0.034
837.19	0.037
837.62	0.037
838.05	0.037
838.49	0.037
838.92	0.037
839.35	0.043
839.79	0.035
840.22	0.035
840.65	0.040
841.09	0.040
841.52	0.038
841.95	0.037
842.39	0.038
842.82	0.039
843.25	0.035
843.68	0.046
844.12	0.048
844.55	0.034
844.98	0.044
845.42	0.046
845.85	0.038
846.28	0.041
846.71	0.040
847.15	0.044
847.58	0.042
848.01	0.037
848.45	0.048
848.88	0.038
849.31	0.034
849.74	0.038
850.18	0.048
850.61	0.039
851.04	0.037
851.47	0.039
851.91	0.046
852.34	0.041
852.77	0.043
853.20	0.047
853.64	0.036
854.07	0.034
854.50	0.036
854.93	0.047
855.36	0.039
855.80	0.038
856.23	0.042
856.66	0.041
857.09	0.042
857.52	0.048
857.96	0.045
858.39	0.040
858.82	0.037
859.25	0.041
859.68	0.048
860.12	0.032
860.55	0.042
860.98	0.048
861.41	0.044
861.84	0.043
862.27	0.041
862.71	0.052
863.14	0.046
863.57	0.039
864.00	0.049
864.43	0.051
864.86	0.042
865.30	0.051
865.73	0.047
866.16	0.049
866.59	0.037
867.02	0.041
867.45	0.044
867.88	0.046
868.31	0.037
868.75	0.054
869.18	0.052
869.61	0.041
870.04	0.043
870.47	0.042
870.90	0.043
871.33	0.040
871.76	0.044
872.19	0.046
872.62	0.046
873.06	0.040
873.49	0.049
873.92	0.043
874.35	0.045
874.78	0.048
875.21	0.053
875.64	0.050
876.07	0.049
876.50	0.048
876.93	0.051
877.36	0.051
877.79	0.046
878.22	0.056
878.65	0.052
879.08	0.046
879.51	0.047
879.94	0.048
880.37	0.044
880.80	0.048
881.23	0.048
881.67	0.052
882.10	0.048
882.53	0.049
882.96	0.055
883.39	0.049
883.82	0.045
884.25	0.043
884.68	0.059
885.11	0.056
885.54	0.057
885.97	0.054
886.39	0.050
886.82	0.055
887.25	0.051
887.68	0.055
888.11	0.056
888.54	0.055
888.97	0.051
889.40	0.057
889.83	0.056
890.26	0.052
890.69	0.058
891.12	0.058
891.55	0.055
891.98	0.049
892.41	0.058
892.84	0.055
893.27	0.049
893.70	0.052
894.13	0.062
894.56	0.054
894.98	0.059
895.41	0.056
895.84	0.058
896.27	0.059
896.70	0.063
897.13	0.061
897.56	0.055
897.99	0.054
898.42	0.058
898.85	0.060
899.27	0.055
899.70	0.060
900.13	0.057
900.56	0.059
900.99	0.059
901.42	0.063
901.85	0.062
902.28	0.060
902.70	0.058
903.13	0.062
903.56	0.063
903.99	0.053
904.42	0.055
904.85	0.060
905.27	0.061
905.70	0.059
906.13	0.058
906.56	0.061
906.99	0.060
907.42	0.059
907.84	0.062
908.27	0.060
908.70	0.061
909.13	0.061
909.56	0.068
909.98	0.057
910.41	0.063
910.84	0.063
911.27	0.062
911.70	0.065
912.12	0.059
912.55	0.059
912.98	0.060
913.41	0.059
913.84	0.060
914.26	0.061
914.69	0.059
915.12	0.059
915.55	0.056
915.97	0.061
916.40	0.061
916.83	0.060
917.26	0.065
917.68	0.064
918.11	0.058
918.54	0.061
918.97	0.064
919.39	0.063
919.82	0.061
920.25	0.061
920.67	0.062
921.10	0.063
921.53	0.064
921.96	0.063
922.38	0.064
922.81	0.065
923.24	0.065
923.66	0.071
924.09	0.070
924.52	0.070
924.94	0.066
925.37	0.069
925.80	0.064
926.22	0.067
926.65	0.072
927.08	0.071
927.50	0.072
927.93	0.079
928.36	0.072
928.78	0.070
929.21	0.076
929.64	0.075
930.06	0.076
930.49	0.076
930.92	0.072
931.34	0.079
931.77	0.080
932.20	0.079
932.62	0.079
933.05	0.081
933.47	0.081
933.90	0.083
934.33	0.087
934.75	0.092
935.18	0.085
935.61	0.089
936.03	0.095
936.46	0.092
936.88	0.090
937.31	0.096
937.73	0.097
938.16	0.098
938.59	0.100
939.01	0.096
939.44	0.106
939.86	0.102
940.29	0.098
940.71	0.104
941.14	0.112
941.57	0.105
941.99	0.119
942.42	0.116
942.84	0.118
943.27	0.124
943.69	0.130
944.12	0.125
944.54	0.123
944.97	0.130
945.39	0.129
945.82	0.134
946.24	0.132
946.67	0.135
947.09	0.137
947.52	0.133
947.94	0.143
948.37	0.149
948.79	0.146
949.22	0.142
949.64	0.152
950.07	0.151
950.49	0.158
950.92	0.159
951.34	0.167
951.77	0.166
952.19	0.166
952.62	0.164
953.04	0.175
953.47	0.171
953.89	0.177
954.32	0.175
954.74	0.185
955.17	0.179
955.59	0.183
956.01	0.199
956.44	0.195
956.86	0.192
957.29	0.199
957.71	0.206
958.14	0.203
958.56	0.209
958.98	0.205
959.41	0.212
959.83	0.210
960.26	0.215
960.68	0.215
961.10	0.219
961.53	0.214
961.95	0.221
962.38	0.226
962.80	0.215
963.22	0.225
963.65	0.222
964.07	0.220
964.50	0.222
964.92	0.224
965.34	0.226
965.77	0.219
966.19	0.217
966.61	0.235
967.04	0.231
967.46	0.230
967.88	0.227
968.31	0.224
968.73	0.229
969.15	0.231
969.58	0.230
970.00	0.236
970.42	0.237
970.85	0.222
971.27	0.232
971.69	0.236
972.12	0.233
972.54	0.232
972.96	0.241
973.39	0.233
973.81	0.227
974.23	0.238
974.65	0.236
975.08	0.235
975.50	0.231
975.92	0.247
976.35	0.234
976.77	0.233
977.19	0.238
977.61	0.237
978.04	0.230
978.46	0.238
978.88	0.228
979.30	0.238
979.73	0.234
980.15	0.227
980.57	0.238
980.99	0.238
981.42	0.236
981.84	0.237
982.26	0.236
982.68	0.226
983.11	0.240
983.53	0.235
983.95	0.228
984.37	0.229
984.79	0.229
985.22	0.232
985.64	0.234
986.06	0.226
986.48	0.226
986.90	0.237
987.33	0.232
987.75	0.229
988.17	0.234
988.59	0.231
989.01	0.227
989.43	0.223
989.86	0.222
990.28	0.228
990.70	0.222
991.12	0.227
991.54	0.220
991.96	0.219
992.39	0.216
992.81	0.220
993.23	0.226
993.65	0.225
994.07	0.209
994.49	0.222
994.91	0.219
995.34	0.211
995.76	0.220
996.18	0.219
996.60	0.208
997.02	0.222
997.44	0.219
997.86	0.218
998.28	0.212
998.70	0.219
999.12	0.219
999.55	0.216
999.97	0.215
1000.39	0.213
1000.81	0.207
1001.23	0.205
1001.65	0.209
1002.07	0.206
1002.49	0.203
1002.91	0.204
1003.33	0.200
1003.75	0.208
1004.17	0.203
1004.59	0.194
1005.01	0.204
1005.43	0.210
1005.85	0.197
1006.28	0.199
1006.70	0.205
1007.12	0.191
1007.54	0.203
1007.96	0.202
1008.38	0.203
1008.80	0.194
1009.22	0.199
1009.64	0.192
1010.06	0.187
1010.48	0.188
1010.90	0.194
1011.32	0.190
1011.74	0.180
1012.16	0.183
1012.58	0.183
1013.00	0.189
1013.42	0.170
1013.84	0.173
1014.26	0.177
1014.67	0.180
1015.09	0.174
1015.51	0.169
1015.93	0.180
1016.35	0.179
1016.77	0.181
1017.19	0.174
1017.61	0.166
1018.03	0.170
1018.45	0.167
1018.87	0.181
1019.29	0.166
1019.71	0.161
1020.13	0.170
1020.55	0.172
1020.97	0.161
1021.38	0.165
1021.80	0.163
1022.22	0.162
1022.64	0.153
1023.06	0.145
1023.48	0.161
1023.90	0.152
1024.32	0.150
1024.74	0.165
1025.15	0.152
1025.57	0.153
1025.99	0.149
1026.41	0.158
1026.83	0.146
1027.25	0.143
1027.67	0.150
1028.08	0.151
1028.50	0.153
1028.92	0.137
1029.34	0.140
1029.76	0.156
1030.18	0.144
1030.60	0.138
1031.01	0.144
1031.43	0.141
1031.85	0.126
1032.27	0.130
1032.69	0.136
1033.10	0.124
1033.52	0.130
1033.94	0.139
1034.36	0.140
1034.78	0.133
1035.19	0.121
1035.61	0.144
1036.03	0.132
1036.45	0.127
1036.87	0.127
1037.28	0.144
1037.70	0.130
1038.12	0.122
1038.54	0.138
1038.95	0.124
1039.37	0.123
1039.79	0.126
1040.21	0.135
1040.62	0.134
1041.04	0.113
1041.46	0.096
1041.88	0.113
1042.29	0.124
1042.71	0.103
1043.13	0.127
1043.55	0.110
1043.96	0.096
1044.38	0.115
1044.80	0.119
1045.21	0.105
1045.63	0.106
1046.05	0.100
1046.47	0.124
1046.88	0.114
1047.30	0.103
1047.72	0.137
1048.13	0.118
1048.55	0.103
1048.97	0.111
1049.38	0.095
1049.80	0.114
1050.22	0.103
1050.63	0.107
1051.05	0.100
1051.47	0.123
1051.88	0.103
1052.30	0.118
1052.72	0.096
1053.13	0.078
1053.55	0.105
1053.97	0.115
1054.38	0.103
1054.80	0.074
1055.21	0.097
1055.63	0.120
1056.05	0.137
1056.46	0.094
1056.88	0.161
1057.29	0.095
1057.71	0.117
1058.13	0.136
1058.54	0.131
1058.96	0.067
1059.37	0.113
1059.79	0.136
1060.21	0.091
1060.62	0.093
1061.04	0.124
1061.45	0.170
1061.87	0.090
1062.28	0.080
1062.70	0.109
1063.12	0.121
1063.53	0.060
1063.95	0.076
1064.36	0.104
1064.78	0.126
1065.19	0.074
1065.61	0.087
1066.02	0.187
1066.44	0.139
1066.85	0.107
1067.27	0.189
1067.68	0.126
1068.10	0.068
1068.51	0.181
1068.93	0.147
1069.35	0.120
1069.76	0.089
1070.17	0.123
1070.59	0.244
1071.00	0.166
1071.42	0.144
1071.83	0.241
1072.25	0.085
1072.66	0.134
1073.08	0.130
1073.49	0.239
1073.91	0.052
1074.32	0.108
1074.74	0.144
1075.15	0.250
1075.57	0.219
1075.98	-0.027
1076.40	0.292
1076.81	0.183
1077.22	0.077
1077.64	0.403
1078.05	0.329
1078.47	0.222
1078.88	0.153
1079.30	0.063
1079.71	0.128
1080.12	0.303
1080.54	0.076
1080.95	0.195
1081.37	0.152
1081.78	-0.071
1082.19	0.695
1082.61	0.312
1083.02	0.158
1083.44	0.268
1083.85	0.394
1084.26	0.288
1084.68	0.287
1085.09	0.212
1085.50	-0.000
1085.92	0.388
1086.33	0.038
1086.74	0.596
1087.16	0.336
1087.57	0.353
1087.98	0.104
1088.40	0.126
1088.81	0.191
1089.22	-0.074
1089.64	0.145
1090.05	0.394
1090.46	0.151
1090.88	0.013
1091.29	0.344
1091.70	0.517
1092.12	0.055
1092.53	0.142
1092.94	0.417
1093.36	1.079
1093.77	0.519
1094.18	0.252
1094.59	0.131
1095.01	0.621
1095.42	-0.039
1095.83	0.439
1096.25	0.353
1096.66	-0.055
1097.07	0.183
1097.48	0.262
1097.90	0.230
1098.31	0.224
1098.72	0.162
1099.13	0.278
>>>>>End Processed Spectral Data<<<<<
