SpectraSuite Data File
++++++++++++++++++++++++++++++++++++
Date: Tue Jul 11 14:45:59 CEST 2017
User: IPCE
Dark Spectrum Present: Yes
Reference Spectrum Present: Yes
Number of Sampled Component Spectra: 1
Spectrometers: HR+C0708
Integration Time (usec): 1000 (HR+C0708)
Spectra Averaged: 10 (HR+C0708)
Boxcar Smoothing: 0 (HR+C0708)
Correct for Electrical Dark: No (HR+C0708)
Strobe/Lamp Enabled: No (HR+C0708)
Correct for Detector Non-linearity: No (HR+C0708)
Correct for Stray Light: No (HR+C0708)
Number of Pixels in Processed Spectrum: 2048
>>>>>Begin Processed Spectral Data<<<<<
188.76	0.588
189.23	0.936
189.70	1.105
190.17	0.253
190.64	-0.000
191.12	0.252
191.59	0.462
192.06	0.914
192.53	-0.000
193.01	-0.000
193.48	1.130
193.95	-0.000
194.42	0.278
194.90	0.226
195.37	0.049
195.84	-0.000
196.31	-0.000
196.78	2.270
197.26	0.753
197.73	0.322
198.20	0.897
198.67	-0.000
199.14	-0.000
199.62	-0.000
200.09	0.575
200.56	0.231
201.03	0.402
201.50	0.418
201.97	0.327
202.45	0.548
202.92	0.314
203.39	0.446
203.86	0.490
204.33	0.236
204.80	0.455
205.28	0.455
205.75	0.223
206.22	0.416
206.69	0.329
207.16	0.229
207.63	0.440
208.11	0.356
208.58	0.492
209.05	0.557
209.52	0.326
209.99	0.417
210.46	0.414
210.93	0.260
211.41	0.540
211.88	0.517
212.35	0.317
212.82	0.607
213.29	0.471
213.76	0.474
214.23	0.472
214.70	0.548
215.18	0.481
215.65	0.606
216.12	0.299
216.59	0.543
217.06	0.444
217.53	0.278
218.00	0.346
218.47	0.489
218.94	0.461
219.41	0.386
219.89	0.273
220.36	0.519
220.83	0.542
221.30	0.428
221.77	0.412
222.24	0.608
222.71	0.383
223.18	0.600
223.65	0.689
224.12	0.519
224.59	0.565
225.06	0.554
225.54	0.750
226.01	0.819
226.48	0.608
226.95	0.870
227.42	0.772
227.89	0.736
228.36	0.907
228.83	0.887
229.30	1.088
229.77	1.107
230.24	1.248
230.71	1.248
231.18	1.146
231.65	1.121
232.12	1.302
232.59	1.430
233.06	1.311
233.53	1.695
234.00	1.348
234.47	1.540
234.94	1.575
235.41	1.645
235.88	1.822
236.35	1.736
236.82	1.731
237.29	2.041
237.76	1.929
238.23	1.940
238.70	1.991
239.17	1.997
239.64	2.242
240.11	2.043
240.58	1.907
241.05	2.039
241.52	2.198
241.99	2.075
242.46	2.159
242.93	2.212
243.40	2.102
243.87	2.203
244.34	2.296
244.81	2.127
245.28	2.267
245.75	2.290
246.22	2.112
246.69	2.191
247.16	2.231
247.63	2.324
248.10	2.534
248.57	2.098
249.04	2.350
249.51	2.265
249.98	2.294
250.45	2.285
250.92	2.127
251.39	2.130
251.85	1.948
252.32	1.845
252.79	1.766
253.26	1.699
253.73	1.589
254.20	1.507
254.67	1.419
255.14	1.321
255.61	1.287
256.08	1.225
256.55	1.174
257.02	1.125
257.49	1.081
257.95	1.043
258.42	1.017
258.89	0.982
259.36	0.958
259.83	0.930
260.30	0.905
260.77	0.885
261.24	0.865
261.71	0.852
262.17	0.836
262.64	0.819
263.11	0.805
263.58	0.785
264.05	0.774
264.52	0.763
264.99	0.748
265.46	0.741
265.92	0.734
266.39	0.722
266.86	0.709
267.33	0.703
267.80	0.690
268.27	0.686
268.74	0.678
269.20	0.665
269.67	0.660
270.14	0.655
270.61	0.647
271.08	0.641
271.55	0.630
272.01	0.624
272.48	0.618
272.95	0.610
273.42	0.609
273.89	0.603
274.36	0.596
274.82	0.591
275.29	0.590
275.76	0.584
276.23	0.583
276.70	0.580
277.16	0.572
277.63	0.568
278.10	0.566
278.57	0.564
279.04	0.561
279.50	0.558
279.97	0.557
280.44	0.556
280.91	0.547
281.38	0.550
281.84	0.545
282.31	0.544
282.78	0.546
283.25	0.543
283.72	0.543
284.18	0.543
284.65	0.539
285.12	0.539
285.59	0.537
286.05	0.534
286.52	0.539
286.99	0.540
287.46	0.539
287.92	0.535
288.39	0.535
288.86	0.533
289.33	0.530
289.79	0.531
290.26	0.534
290.73	0.528
291.20	0.527
291.66	0.525
292.13	0.521
292.60	0.516
293.07	0.516
293.53	0.513
294.00	0.506
294.47	0.505
294.93	0.495
295.40	0.492
295.87	0.483
296.34	0.479
296.80	0.477
297.27	0.464
297.74	0.458
298.20	0.453
298.67	0.448
299.14	0.440
299.60	0.438
300.07	0.428
300.54	0.421
301.01	0.416
301.47	0.407
301.94	0.402
302.41	0.397
302.87	0.385
303.34	0.384
303.81	0.378
304.27	0.368
304.74	0.361
305.21	0.357
305.67	0.355
306.14	0.350
306.61	0.343
307.07	0.335
307.54	0.331
308.01	0.327
308.47	0.327
308.94	0.323
309.40	0.318
309.87	0.313
310.34	0.311
310.80	0.307
311.27	0.306
311.74	0.304
312.20	0.302
312.67	0.300
313.13	0.295
313.60	0.294
314.07	0.292
314.53	0.289
315.00	0.289
315.47	0.284
315.93	0.286
316.40	0.285
316.86	0.282
317.33	0.282
317.80	0.279
318.26	0.278
318.73	0.278
319.19	0.278
319.66	0.272
320.13	0.276
320.59	0.271
321.06	0.270
321.52	0.266
321.99	0.266
322.45	0.264
322.92	0.265
323.39	0.262
323.85	0.258
324.32	0.260
324.78	0.260
325.25	0.260
325.71	0.253
326.18	0.255
326.64	0.256
327.11	0.253
327.58	0.251
328.04	0.249
328.51	0.250
328.97	0.250
329.44	0.252
329.90	0.243
330.37	0.241
330.83	0.240
331.30	0.243
331.76	0.240
332.23	0.237
332.69	0.236
333.16	0.235
333.62	0.234
334.09	0.231
334.56	0.232
335.02	0.228
335.49	0.225
335.95	0.227
336.42	0.223
336.88	0.219
337.35	0.220
337.81	0.220
338.28	0.218
338.74	0.219
339.20	0.219
339.67	0.217
340.13	0.213
340.60	0.212
341.06	0.213
341.53	0.211
341.99	0.209
342.46	0.209
342.92	0.208
343.39	0.212
343.85	0.201
344.32	0.204
344.78	0.203
345.25	0.203
345.71	0.204
346.17	0.204
346.64	0.204
347.10	0.202
347.57	0.200
348.03	0.198
348.50	0.195
348.96	0.198
349.43	0.197
349.89	0.198
350.35	0.192
350.82	0.197
351.28	0.192
351.75	0.194
352.21	0.193
352.67	0.192
353.14	0.192
353.60	0.191
354.07	0.186
354.53	0.184
355.00	0.184
355.46	0.183
355.92	0.182
356.39	0.183
356.85	0.177
357.31	0.184
357.78	0.177
358.24	0.175
358.71	0.178
359.17	0.171
359.63	0.174
360.10	0.176
360.56	0.167
361.03	0.170
361.49	0.170
361.95	0.167
362.42	0.164
362.88	0.164
363.34	0.166
363.81	0.163
364.27	0.160
364.73	0.162
365.20	0.162
365.66	0.161
366.12	0.164
366.59	0.158
367.05	0.160
367.51	0.157
367.98	0.157
368.44	0.160
368.90	0.158
369.37	0.156
369.83	0.158
370.29	0.160
370.76	0.155
371.22	0.156
371.68	0.154
372.15	0.155
372.61	0.158
373.07	0.158
373.54	0.155
374.00	0.156
374.46	0.154
374.92	0.155
375.39	0.156
375.85	0.152
376.31	0.153
376.78	0.154
377.24	0.151
377.70	0.154
378.16	0.154
378.63	0.153
379.09	0.152
379.55	0.150
380.01	0.149
380.48	0.151
380.94	0.150
381.40	0.150
381.87	0.152
382.33	0.152
382.79	0.150
383.25	0.151
383.72	0.149
384.18	0.149
384.64	0.148
385.10	0.149
385.56	0.151
386.03	0.150
386.49	0.146
386.95	0.147
387.41	0.148
387.88	0.143
388.34	0.147
388.80	0.148
389.26	0.143
389.72	0.147
390.19	0.146
390.65	0.145
391.11	0.147
391.57	0.146
392.04	0.145
392.50	0.145
392.96	0.147
393.42	0.144
393.88	0.143
394.34	0.143
394.81	0.143
395.27	0.145
395.73	0.146
396.19	0.140
396.65	0.143
397.12	0.143
397.58	0.142
398.04	0.142
398.50	0.145
398.96	0.143
399.42	0.145
399.89	0.143
400.35	0.140
400.81	0.142
401.27	0.140
401.73	0.139
402.19	0.140
402.65	0.136
403.12	0.140
403.58	0.136
404.04	0.136
404.50	0.138
404.96	0.138
405.42	0.136
405.88	0.138
406.34	0.137
406.81	0.137
407.27	0.135
407.73	0.134
408.19	0.135
408.65	0.134
409.11	0.134
409.57	0.135
410.03	0.134
410.49	0.131
410.96	0.132
411.42	0.134
411.88	0.131
412.34	0.132
412.80	0.131
413.26	0.132
413.72	0.133
414.18	0.129
414.64	0.129
415.10	0.132
415.56	0.127
416.02	0.129
416.48	0.130
416.95	0.131
417.41	0.130
417.87	0.130
418.33	0.130
418.79	0.130
419.25	0.129
419.71	0.129
420.17	0.130
420.63	0.127
421.09	0.127
421.55	0.127
422.01	0.127
422.47	0.131
422.93	0.130
423.39	0.132
423.85	0.132
424.31	0.128
424.77	0.124
425.23	0.130
425.69	0.127
426.15	0.126
426.61	0.127
427.07	0.127
427.53	0.126
427.99	0.125
428.45	0.126
428.91	0.125
429.37	0.124
429.83	0.127
430.29	0.126
430.75	0.129
431.21	0.126
431.67	0.126
432.13	0.122
432.59	0.125
433.05	0.125
433.51	0.125
433.97	0.125
434.43	0.127
434.89	0.124
435.35	0.120
435.81	0.119
436.27	0.121
436.73	0.124
437.19	0.122
437.65	0.123
438.11	0.123
438.57	0.125
439.03	0.119
439.48	0.121
439.94	0.122
440.40	0.122
440.86	0.120
441.32	0.117
441.78	0.120
442.24	0.120
442.70	0.122
443.16	0.120
443.62	0.123
444.08	0.119
444.54	0.120
444.99	0.118
445.45	0.120
445.91	0.118
446.37	0.117
446.83	0.119
447.29	0.119
447.75	0.117
448.21	0.115
448.67	0.114
449.12	0.119
449.58	0.118
450.04	0.117
450.50	0.118
450.96	0.119
451.42	0.116
451.88	0.120
452.34	0.118
452.79	0.112
453.25	0.116
453.71	0.115
454.17	0.117
454.63	0.114
455.09	0.119
455.55	0.118
456.00	0.116
456.46	0.113
456.92	0.114
457.38	0.116
457.84	0.110
458.30	0.113
458.75	0.116
459.21	0.114
459.67	0.116
460.13	0.113
460.59	0.115
461.04	0.114
461.50	0.114
461.96	0.114
462.42	0.114
462.88	0.114
463.33	0.113
463.79	0.116
464.25	0.116
464.71	0.115
465.17	0.115
465.62	0.117
466.08	0.114
466.54	0.116
467.00	0.115
467.46	0.113
467.91	0.115
468.37	0.117
468.83	0.115
469.29	0.115
469.74	0.112
470.20	0.115
470.66	0.116
471.12	0.116
471.57	0.116
472.03	0.114
472.49	0.118
472.95	0.115
473.40	0.114
473.86	0.116
474.32	0.114
474.78	0.114
475.23	0.114
475.69	0.115
476.15	0.114
476.60	0.117
477.06	0.116
477.52	0.114
477.98	0.115
478.43	0.115
478.89	0.116
479.35	0.114
479.80	0.115
480.26	0.114
480.72	0.113
481.18	0.114
481.63	0.113
482.09	0.113
482.55	0.116
483.00	0.114
483.46	0.114
483.92	0.111
484.37	0.116
484.83	0.113
485.29	0.115
485.74	0.114
486.20	0.113
486.66	0.114
487.11	0.112
487.57	0.113
488.03	0.116
488.48	0.113
488.94	0.114
489.40	0.113
489.85	0.113
490.31	0.112
490.77	0.112
491.22	0.114
491.68	0.113
492.13	0.113
492.59	0.112
493.05	0.113
493.50	0.114
493.96	0.113
494.42	0.114
494.87	0.112
495.33	0.113
495.78	0.115
496.24	0.112
496.70	0.114
497.15	0.113
497.61	0.114
498.06	0.114
498.52	0.113
498.98	0.114
499.43	0.111
499.89	0.112
500.34	0.113
500.80	0.112
501.25	0.112
501.71	0.112
502.17	0.117
502.62	0.112
503.08	0.114
503.53	0.112
503.99	0.111
504.44	0.114
504.90	0.110
505.36	0.111
505.81	0.113
506.27	0.111
506.72	0.111
507.18	0.111
507.63	0.110
508.09	0.114
508.54	0.112
509.00	0.111
509.45	0.110
509.91	0.112
510.36	0.112
510.82	0.110
511.27	0.114
511.73	0.113
512.19	0.113
512.64	0.113
513.10	0.111
513.55	0.112
514.01	0.111
514.46	0.111
514.92	0.111
515.37	0.111
515.83	0.112
516.28	0.109
516.73	0.110
517.19	0.110
517.64	0.110
518.10	0.109
518.55	0.109
519.01	0.109
519.46	0.108
519.92	0.109
520.37	0.107
520.83	0.111
521.28	0.109
521.74	0.111
522.19	0.108
522.65	0.109
523.10	0.111
523.55	0.110
524.01	0.108
524.46	0.110
524.92	0.110
525.37	0.108
525.83	0.110
526.28	0.109
526.73	0.113
527.19	0.109
527.64	0.111
528.10	0.111
528.55	0.109
529.01	0.110
529.46	0.110
529.91	0.109
530.37	0.110
530.82	0.110
531.28	0.108
531.73	0.110
532.18	0.110
532.64	0.107
533.09	0.110
533.54	0.110
534.00	0.107
534.45	0.111
534.91	0.111
535.36	0.109
535.81	0.112
536.27	0.112
536.72	0.112
537.17	0.110
537.63	0.112
538.08	0.112
538.54	0.112
538.99	0.113
539.44	0.111
539.90	0.114
540.35	0.113
540.80	0.112
541.26	0.113
541.71	0.116
542.16	0.111
542.62	0.113
543.07	0.114
543.52	0.114
543.98	0.114
544.43	0.114
544.88	0.114
545.34	0.115
545.79	0.116
546.24	0.116
546.69	0.114
547.15	0.116
547.60	0.117
548.05	0.118
548.51	0.121
548.96	0.115
549.41	0.116
549.86	0.116
550.32	0.119
550.77	0.119
551.22	0.118
551.68	0.118
552.13	0.119
552.58	0.120
553.03	0.120
553.49	0.119
553.94	0.124
554.39	0.123
554.84	0.119
555.30	0.121
555.75	0.124
556.20	0.122
556.65	0.124
557.11	0.125
557.56	0.123
558.01	0.124
558.46	0.125
558.92	0.125
559.37	0.127
559.82	0.126
560.27	0.128
560.72	0.126
561.18	0.130
561.63	0.128
562.08	0.128
562.53	0.129
562.99	0.131
563.44	0.132
563.89	0.129
564.34	0.132
564.79	0.131
565.25	0.133
565.70	0.135
566.15	0.134
566.60	0.132
567.05	0.136
567.50	0.134
567.96	0.134
568.41	0.135
568.86	0.138
569.31	0.136
569.76	0.138
570.21	0.139
570.67	0.140
571.12	0.139
571.57	0.143
572.02	0.141
572.47	0.142
572.92	0.143
573.37	0.143
573.83	0.142
574.28	0.144
574.73	0.145
575.18	0.145
575.63	0.149
576.08	0.145
576.53	0.147
576.98	0.148
577.44	0.150
577.89	0.150
578.34	0.153
578.79	0.152
579.24	0.153
579.69	0.155
580.14	0.155
580.59	0.155
581.04	0.154
581.49	0.157
581.95	0.159
582.40	0.161
582.85	0.160
583.30	0.162
583.75	0.164
584.20	0.164
584.65	0.166
585.10	0.166
585.55	0.169
586.00	0.169
586.45	0.171
586.90	0.173
587.35	0.174
587.80	0.174
588.25	0.176
588.71	0.178
589.16	0.179
589.61	0.181
590.06	0.182
590.51	0.183
590.96	0.186
591.41	0.187
591.86	0.188
592.31	0.190
592.76	0.192
593.21	0.191
593.66	0.195
594.11	0.197
594.56	0.196
595.01	0.199
595.46	0.199
595.91	0.203
596.36	0.202
596.81	0.204
597.26	0.208
597.71	0.208
598.16	0.210
598.61	0.210
599.06	0.212
599.51	0.214
599.96	0.216
600.41	0.220
600.86	0.219
601.31	0.220
601.76	0.224
602.21	0.224
602.65	0.225
603.10	0.228
603.55	0.229
604.00	0.231
604.45	0.231
604.90	0.234
605.35	0.233
605.80	0.237
606.25	0.239
606.70	0.238
607.15	0.238
607.60	0.242
608.05	0.242
608.50	0.245
608.95	0.247
609.39	0.246
609.84	0.247
610.29	0.251
610.74	0.248
611.19	0.251
611.64	0.252
612.09	0.252
612.54	0.255
612.99	0.252
613.44	0.254
613.88	0.254
614.33	0.256
614.78	0.257
615.23	0.258
615.68	0.258
616.13	0.258
616.58	0.261
617.03	0.258
617.47	0.259
617.92	0.260
618.37	0.263
618.82	0.263
619.27	0.262
619.72	0.262
620.17	0.264
620.61	0.263
621.06	0.265
621.51	0.268
621.96	0.266
622.41	0.267
622.86	0.268
623.30	0.267
623.75	0.268
624.20	0.268
624.65	0.272
625.10	0.271
625.54	0.273
625.99	0.271
626.44	0.276
626.89	0.274
627.34	0.274
627.78	0.278
628.23	0.278
628.68	0.278
629.13	0.279
629.58	0.282
630.02	0.282
630.47	0.287
630.92	0.283
631.37	0.284
631.81	0.286
632.26	0.289
632.71	0.292
633.16	0.291
633.61	0.292
634.05	0.295
634.50	0.293
634.95	0.300
635.40	0.303
635.84	0.302
636.29	0.303
636.74	0.304
637.18	0.307
637.63	0.311
638.08	0.309
638.53	0.314
638.97	0.316
639.42	0.318
639.87	0.321
640.32	0.323
640.76	0.324
641.21	0.326
641.66	0.329
642.10	0.333
642.55	0.334
643.00	0.337
643.44	0.339
643.89	0.342
644.34	0.342
644.79	0.346
645.23	0.351
645.68	0.355
646.13	0.355
646.57	0.357
647.02	0.361
647.47	0.363
647.91	0.365
648.36	0.370
648.81	0.372
649.25	0.372
649.70	0.373
650.15	0.378
650.59	0.382
651.04	0.383
651.48	0.385
651.93	0.387
652.38	0.389
652.82	0.387
653.27	0.392
653.72	0.395
654.16	0.395
654.61	0.398
655.06	0.399
655.50	0.402
655.95	0.400
656.39	0.407
656.84	0.408
657.29	0.409
657.73	0.409
658.18	0.413
658.62	0.415
659.07	0.412
659.52	0.415
659.96	0.417
660.41	0.416
660.85	0.416
661.30	0.419
661.74	0.420
662.19	0.420
662.64	0.420
663.08	0.422
663.53	0.422
663.97	0.421
664.42	0.421
664.86	0.420
665.31	0.423
665.75	0.422
666.20	0.419
666.65	0.420
667.09	0.418
667.54	0.415
667.98	0.413
668.43	0.413
668.87	0.410
669.32	0.408
669.76	0.404
670.21	0.403
670.65	0.398
671.10	0.397
671.54	0.394
671.99	0.385
672.43	0.382
672.88	0.378
673.32	0.375
673.77	0.369
674.21	0.364
674.66	0.359
675.10	0.352
675.55	0.348
675.99	0.342
676.44	0.337
676.88	0.329
677.33	0.326
677.77	0.317
678.22	0.310
678.66	0.306
679.11	0.299
679.55	0.292
679.99	0.284
680.44	0.278
680.88	0.273
681.33	0.265
681.77	0.256
682.22	0.252
682.66	0.244
683.11	0.238
683.55	0.233
683.99	0.227
684.44	0.221
684.88	0.220
685.33	0.209
685.77	0.203
686.21	0.200
686.66	0.194
687.10	0.187
687.55	0.182
687.99	0.177
688.44	0.176
688.88	0.171
689.32	0.166
689.77	0.160
690.21	0.157
690.65	0.154
691.10	0.151
691.54	0.146
691.99	0.143
692.43	0.138
692.87	0.137
693.32	0.134
693.76	0.131
694.20	0.128
694.65	0.126
695.09	0.122
695.53	0.121
695.98	0.120
696.42	0.115
696.86	0.112
697.31	0.110
697.75	0.112
698.19	0.106
698.64	0.105
699.08	0.107
699.52	0.104
699.97	0.103
700.41	0.102
700.85	0.101
701.30	0.097
701.74	0.095
702.18	0.096
702.63	0.094
703.07	0.094
703.51	0.094
703.96	0.092
704.40	0.091
704.84	0.089
705.28	0.089
705.73	0.087
706.17	0.089
706.61	0.086
707.06	0.088
707.50	0.085
707.94	0.084
708.38	0.087
708.83	0.085
709.27	0.085
709.71	0.083
710.15	0.084
710.60	0.083
711.04	0.084
711.48	0.081
711.92	0.083
712.37	0.080
712.81	0.080
713.25	0.080
713.69	0.083
714.13	0.077
714.58	0.078
715.02	0.078
715.46	0.079
715.90	0.079
716.35	0.080
716.79	0.077
717.23	0.082
717.67	0.079
718.11	0.078
718.56	0.078
719.00	0.078
719.44	0.080
719.88	0.078
720.32	0.079
720.76	0.078
721.21	0.078
721.65	0.079
722.09	0.080
722.53	0.078
722.97	0.078
723.41	0.077
723.86	0.079
724.30	0.077
724.74	0.079
725.18	0.078
725.62	0.080
726.06	0.082
726.50	0.080
726.95	0.079
727.39	0.079
727.83	0.076
728.27	0.079
728.71	0.078
729.15	0.077
729.59	0.079
730.03	0.080
730.48	0.080
730.92	0.077
731.36	0.079
731.80	0.077
732.24	0.077
732.68	0.080
733.12	0.080
733.56	0.079
734.00	0.081
734.44	0.081
734.89	0.080
735.33	0.082
735.77	0.080
736.21	0.081
736.65	0.079
737.09	0.081
737.53	0.082
737.97	0.081
738.41	0.079
738.85	0.083
739.29	0.080
739.73	0.080
740.17	0.080
740.61	0.081
741.05	0.079
741.49	0.082
741.93	0.079
742.37	0.080
742.81	0.082
743.26	0.081
743.70	0.080
744.14	0.082
744.58	0.080
745.02	0.079
745.46	0.081
745.90	0.079
746.34	0.083
746.78	0.080
747.22	0.080
747.66	0.080
748.10	0.079
748.54	0.078
748.98	0.080
749.42	0.082
749.86	0.080
750.29	0.081
750.73	0.079
751.17	0.079
751.61	0.078
752.05	0.082
752.49	0.076
752.93	0.080
753.37	0.081
753.81	0.083
754.25	0.078
754.69	0.077
755.13	0.081
755.57	0.079
756.01	0.078
756.45	0.078
756.89	0.082
757.33	0.080
757.77	0.078
758.21	0.079
758.64	0.080
759.08	0.079
759.52	0.080
759.96	0.077
760.40	0.076
760.84	0.077
761.28	0.079
761.72	0.077
762.16	0.081
762.60	0.080
763.03	0.079
763.47	0.076
763.91	0.078
764.35	0.076
764.79	0.076
765.23	0.078
765.67	0.081
766.11	0.079
766.54	0.080
766.98	0.076
767.42	0.077
767.86	0.078
768.30	0.076
768.74	0.077
769.17	0.077
769.61	0.079
770.05	0.080
770.49	0.076
770.93	0.080
771.37	0.079
771.80	0.078
772.24	0.080
772.68	0.081
773.12	0.078
773.56	0.080
774.00	0.079
774.43	0.077
774.87	0.076
775.31	0.077
775.75	0.078
776.19	0.077
776.62	0.080
777.06	0.078
777.50	0.076
777.94	0.081
778.37	0.077
778.81	0.076
779.25	0.080
779.69	0.078
780.13	0.072
780.56	0.078
781.00	0.078
781.44	0.074
781.88	0.077
782.31	0.077
782.75	0.079
783.19	0.079
783.63	0.078
784.06	0.075
784.50	0.078
784.94	0.078
785.37	0.078
785.81	0.077
786.25	0.074
786.69	0.079
787.12	0.077
787.56	0.077
788.00	0.077
788.43	0.077
788.87	0.077
789.31	0.078
789.75	0.079
790.18	0.078
790.62	0.078
791.06	0.075
791.49	0.075
791.93	0.077
792.37	0.074
792.80	0.077
793.24	0.077
793.68	0.076
794.11	0.074
794.55	0.077
794.99	0.077
795.42	0.072
795.86	0.077
796.30	0.079
796.73	0.079
797.17	0.074
797.61	0.075
798.04	0.074
798.48	0.078
798.91	0.079
799.35	0.074
799.79	0.078
800.22	0.075
800.66	0.070
801.10	0.078
801.53	0.078
801.97	0.077
802.40	0.073
802.84	0.079
803.28	0.074
803.71	0.074
804.15	0.078
804.58	0.079
805.02	0.076
805.46	0.076
805.89	0.080
806.33	0.073
806.76	0.077
807.20	0.073
807.63	0.071
808.07	0.075
808.51	0.068
808.94	0.076
809.38	0.076
809.81	0.072
810.25	0.074
810.68	0.077
811.12	0.071
811.55	0.075
811.99	0.078
812.42	0.074
812.86	0.073
813.29	0.078
813.73	0.074
814.17	0.076
814.60	0.073
815.04	0.074
815.47	0.072
815.91	0.072
816.34	0.071
816.78	0.076
817.21	0.075
817.65	0.070
818.08	0.076
818.52	0.080
818.95	0.077
819.39	0.073
819.82	0.072
820.25	0.071
820.69	0.072
821.12	0.070
821.56	0.076
821.99	0.074
822.43	0.078
822.86	0.072
823.30	0.078
823.73	0.076
824.17	0.072
824.60	0.076
825.04	0.079
825.47	0.075
825.90	0.075
826.34	0.076
826.77	0.079
827.21	0.075
827.64	0.073
828.08	0.079
828.51	0.077
828.94	0.078
829.38	0.075
829.81	0.079
830.25	0.075
830.68	0.080
831.11	0.085
831.55	0.083
831.98	0.077
832.42	0.075
832.85	0.088
833.28	0.080
833.72	0.086
834.15	0.085
834.58	0.082
835.02	0.082
835.45	0.076
835.88	0.082
836.32	0.084
836.75	0.075
837.19	0.080
837.62	0.083
838.05	0.083
838.49	0.080
838.92	0.083
839.35	0.087
839.79	0.081
840.22	0.078
840.65	0.076
841.09	0.081
841.52	0.079
841.95	0.082
842.39	0.079
842.82	0.083
843.25	0.080
843.68	0.085
844.12	0.082
844.55	0.083
844.98	0.081
845.42	0.087
845.85	0.081
846.28	0.078
846.71	0.082
847.15	0.087
847.58	0.088
848.01	0.081
848.45	0.086
848.88	0.084
849.31	0.087
849.74	0.078
850.18	0.090
850.61	0.081
851.04	0.083
851.47	0.089
851.91	0.088
852.34	0.081
852.77	0.080
853.20	0.089
853.64	0.080
854.07	0.074
854.50	0.080
854.93	0.090
855.36	0.080
855.80	0.079
856.23	0.087
856.66	0.085
857.09	0.085
857.52	0.087
857.96	0.089
858.39	0.085
858.82	0.084
859.25	0.082
859.68	0.084
860.12	0.082
860.55	0.087
860.98	0.088
861.41	0.083
861.84	0.081
862.27	0.083
862.71	0.088
863.14	0.087
863.57	0.080
864.00	0.091
864.43	0.092
864.86	0.086
865.30	0.084
865.73	0.085
866.16	0.090
866.59	0.082
867.02	0.084
867.45	0.083
867.88	0.083
868.31	0.080
868.75	0.087
869.18	0.094
869.61	0.089
870.04	0.092
870.47	0.087
870.90	0.087
871.33	0.086
871.76	0.086
872.19	0.091
872.62	0.081
873.06	0.081
873.49	0.090
873.92	0.089
874.35	0.087
874.78	0.090
875.21	0.097
875.64	0.083
876.07	0.085
876.50	0.097
876.93	0.089
877.36	0.088
877.79	0.087
878.22	0.093
878.65	0.094
879.08	0.084
879.51	0.084
879.94	0.090
880.37	0.087
880.80	0.085
881.23	0.086
881.67	0.093
882.10	0.088
882.53	0.092
882.96	0.090
883.39	0.089
883.82	0.085
884.25	0.088
884.68	0.099
885.11	0.093
885.54	0.093
885.97	0.090
886.39	0.088
886.82	0.097
887.25	0.094
887.68	0.095
888.11	0.093
888.54	0.098
888.97	0.090
889.40	0.094
889.83	0.098
890.26	0.090
890.69	0.094
891.12	0.093
891.55	0.097
891.98	0.092
892.41	0.094
892.84	0.099
893.27	0.093
893.70	0.099
894.13	0.101
894.56	0.091
894.98	0.101
895.41	0.096
895.84	0.096
896.27	0.097
896.70	0.102
897.13	0.097
897.56	0.093
897.99	0.091
898.42	0.096
898.85	0.100
899.27	0.091
899.70	0.096
900.13	0.097
900.56	0.102
900.99	0.096
901.42	0.100
901.85	0.100
902.28	0.102
902.70	0.098
903.13	0.100
903.56	0.098
903.99	0.098
904.42	0.095
904.85	0.094
905.27	0.094
905.70	0.097
906.13	0.098
906.56	0.099
906.99	0.100
907.42	0.099
907.84	0.100
908.27	0.099
908.70	0.099
909.13	0.097
909.56	0.102
909.98	0.092
910.41	0.096
910.84	0.095
911.27	0.103
911.70	0.101
912.12	0.098
912.55	0.096
912.98	0.101
913.41	0.096
913.84	0.101
914.26	0.100
914.69	0.102
915.12	0.096
915.55	0.097
915.97	0.100
916.40	0.097
916.83	0.097
917.26	0.101
917.68	0.099
918.11	0.095
918.54	0.097
918.97	0.100
919.39	0.099
919.82	0.100
920.25	0.095
920.67	0.099
921.10	0.101
921.53	0.100
921.96	0.101
922.38	0.100
922.81	0.102
923.24	0.106
923.66	0.107
924.09	0.103
924.52	0.103
924.94	0.107
925.37	0.105
925.80	0.102
926.22	0.110
926.65	0.107
927.08	0.109
927.50	0.110
927.93	0.113
928.36	0.109
928.78	0.108
929.21	0.111
929.64	0.113
930.06	0.111
930.49	0.109
930.92	0.110
931.34	0.118
931.77	0.115
932.20	0.116
932.62	0.114
933.05	0.120
933.47	0.123
933.90	0.121
934.33	0.125
934.75	0.126
935.18	0.122
935.61	0.123
936.03	0.135
936.46	0.125
936.88	0.131
937.31	0.134
937.73	0.138
938.16	0.134
938.59	0.137
939.01	0.141
939.44	0.139
939.86	0.134
940.29	0.144
940.71	0.144
941.14	0.145
941.57	0.153
941.99	0.151
942.42	0.152
942.84	0.156
943.27	0.169
943.69	0.170
944.12	0.163
944.54	0.160
944.97	0.172
945.39	0.170
945.82	0.165
946.24	0.166
946.67	0.175
947.09	0.178
947.52	0.175
947.94	0.177
948.37	0.188
948.79	0.188
949.22	0.187
949.64	0.189
950.07	0.180
950.49	0.194
950.92	0.199
951.34	0.193
951.77	0.207
952.19	0.207
952.62	0.206
953.04	0.212
953.47	0.212
953.89	0.220
954.32	0.218
954.74	0.228
955.17	0.221
955.59	0.233
956.01	0.236
956.44	0.237
956.86	0.234
957.29	0.242
957.71	0.247
958.14	0.244
958.56	0.246
958.98	0.251
959.41	0.256
959.83	0.246
960.26	0.250
960.68	0.253
961.10	0.253
961.53	0.255
961.95	0.261
962.38	0.263
962.80	0.255
963.22	0.262
963.65	0.261
964.07	0.257
964.50	0.264
964.92	0.262
965.34	0.265
965.77	0.265
966.19	0.257
966.61	0.269
967.04	0.271
967.46	0.268
967.88	0.262
968.31	0.259
968.73	0.265
969.15	0.268
969.58	0.268
970.00	0.263
970.42	0.269
970.85	0.267
971.27	0.266
971.69	0.271
972.12	0.270
972.54	0.268
972.96	0.275
973.39	0.273
973.81	0.266
974.23	0.273
974.65	0.279
975.08	0.270
975.50	0.270
975.92	0.272
976.35	0.271
976.77	0.267
977.19	0.270
977.61	0.271
978.04	0.269
978.46	0.267
978.88	0.274
979.30	0.277
979.73	0.272
980.15	0.274
980.57	0.278
980.99	0.271
981.42	0.266
981.84	0.278
982.26	0.276
982.68	0.267
983.11	0.266
983.53	0.273
983.95	0.272
984.37	0.264
984.79	0.270
985.22	0.275
985.64	0.275
986.06	0.260
986.48	0.271
986.90	0.264
987.33	0.261
987.75	0.266
988.17	0.271
988.59	0.270
989.01	0.264
989.43	0.264
989.86	0.264
990.28	0.267
990.70	0.263
991.12	0.259
991.54	0.267
991.96	0.265
992.39	0.258
992.81	0.256
993.23	0.252
993.65	0.262
994.07	0.253
994.49	0.256
994.91	0.254
995.34	0.250
995.76	0.252
996.18	0.259
996.60	0.255
997.02	0.253
997.44	0.258
997.86	0.256
998.28	0.250
998.70	0.249
999.12	0.244
999.55	0.252
999.97	0.249
1000.39	0.246
1000.81	0.250
1001.23	0.236
1001.65	0.237
1002.07	0.243
1002.49	0.236
1002.91	0.241
1003.33	0.236
1003.75	0.249
1004.17	0.230
1004.59	0.237
1005.01	0.234
1005.43	0.241
1005.85	0.236
1006.28	0.233
1006.70	0.240
1007.12	0.228
1007.54	0.236
1007.96	0.236
1008.38	0.231
1008.80	0.217
1009.22	0.223
1009.64	0.214
1010.06	0.228
1010.48	0.218
1010.90	0.228
1011.32	0.221
1011.74	0.217
1012.16	0.220
1012.58	0.223
1013.00	0.215
1013.42	0.206
1013.84	0.210
1014.26	0.200
1014.67	0.221
1015.09	0.206
1015.51	0.214
1015.93	0.221
1016.35	0.225
1016.77	0.207
1017.19	0.219
1017.61	0.212
1018.03	0.206
1018.45	0.202
1018.87	0.204
1019.29	0.202
1019.71	0.203
1020.13	0.212
1020.55	0.205
1020.97	0.199
1021.38	0.203
1021.80	0.206
1022.22	0.201
1022.64	0.197
1023.06	0.202
1023.48	0.192
1023.90	0.182
1024.32	0.200
1024.74	0.198
1025.15	0.184
1025.57	0.192
1025.99	0.181
1026.41	0.200
1026.83	0.184
1027.25	0.182
1027.67	0.185
1028.08	0.186
1028.50	0.190
1028.92	0.177
1029.34	0.175
1029.76	0.178
1030.18	0.176
1030.60	0.168
1031.01	0.177
1031.43	0.174
1031.85	0.173
1032.27	0.168
1032.69	0.177
1033.10	0.180
1033.52	0.172
1033.94	0.164
1034.36	0.163
1034.78	0.168
1035.19	0.151
1035.61	0.176
1036.03	0.166
1036.45	0.172
1036.87	0.162
1037.28	0.169
1037.70	0.158
1038.12	0.152
1038.54	0.152
1038.95	0.156
1039.37	0.160
1039.79	0.160
1040.21	0.166
1040.62	0.152
1041.04	0.135
1041.46	0.142
1041.88	0.142
1042.29	0.157
1042.71	0.152
1043.13	0.134
1043.55	0.153
1043.96	0.152
1044.38	0.143
1044.80	0.167
1045.21	0.135
1045.63	0.154
1046.05	0.148
1046.47	0.135
1046.88	0.139
1047.30	0.137
1047.72	0.136
1048.13	0.147
1048.55	0.135
1048.97	0.135
1049.38	0.152
1049.80	0.141
1050.22	0.142
1050.63	0.127
1051.05	0.138
1051.47	0.124
1051.88	0.147
1052.30	0.147
1052.72	0.136
1053.13	0.161
1053.55	0.136
1053.97	0.123
1054.38	0.150
1054.80	0.153
1055.21	0.185
1055.63	0.142
1056.05	0.161
1056.46	0.128
1056.88	0.194
1057.29	0.135
1057.71	0.112
1058.13	0.154
1058.54	0.157
1058.96	0.136
1059.37	0.139
1059.79	0.203
1060.21	0.169
1060.62	0.198
1061.04	0.163
1061.45	0.183
1061.87	0.097
1062.28	0.158
1062.70	0.207
1063.12	0.188
1063.53	0.160
1063.95	0.140
1064.36	0.194
1064.78	0.179
1065.19	0.161
1065.61	0.131
1066.02	0.202
1066.44	0.136
1066.85	0.116
1067.27	0.169
1067.68	0.153
1068.10	0.186
1068.51	0.125
1068.93	0.221
1069.35	0.126
1069.76	0.186
1070.17	0.239
1070.59	0.315
1071.00	0.337
1071.42	0.176
1071.83	0.215
1072.25	0.268
1072.66	0.231
1073.08	0.241
1073.49	0.291
1073.91	0.112
1074.32	0.203
1074.74	0.335
1075.15	0.274
1075.57	0.289
1075.98	0.164
1076.40	0.431
1076.81	0.257
1077.22	0.182
1077.64	0.289
1078.05	0.947
1078.47	0.103
1078.88	0.290
1079.30	0.183
1079.71	0.318
1080.12	0.144
1080.54	0.227
1080.95	0.268
1081.37	0.154
1081.78	0.217
1082.19	0.580
1082.61	0.236
1083.02	0.158
1083.44	0.107
1083.85	0.410
1084.26	0.304
1084.68	0.315
1085.09	0.513
1085.50	0.541
1085.92	0.486
1086.33	-0.000
1086.74	0.363
1087.16	0.631
1087.57	0.660
1087.98	1.047
1088.40	0.609
1088.81	0.288
1089.22	-0.000
1089.64	-0.000
1090.05	0.732
1090.46	0.313
1090.88	0.436
1091.29	0.339
1091.70	0.760
1092.12	0.489
1092.53	-0.000
1092.94	-0.000
1093.36	0.653
1093.77	-0.000
1094.18	-0.000
1094.59	0.094
1095.01	0.524
1095.42	0.411
1095.83	-0.000
1096.25	0.892
1096.66	0.716
1097.07	0.129
1097.48	0.841
1097.90	0.477
1098.31	1.230
1098.72	-0.000
1099.13	1.149
>>>>>End Processed Spectral Data<<<<<
