SpectraSuite Data File
++++++++++++++++++++++++++++++++++++
Date: Tue Jul 11 13:34:59 CEST 2017
User: IPCE
Dark Spectrum Present: Yes
Reference Spectrum Present: Yes
Number of Sampled Component Spectra: 1
Spectrometers: HR+C0708
Integration Time (usec): 1000 (HR+C0708)
Spectra Averaged: 10 (HR+C0708)
Boxcar Smoothing: 0 (HR+C0708)
Correct for Electrical Dark: No (HR+C0708)
Strobe/Lamp Enabled: No (HR+C0708)
Correct for Detector Non-linearity: No (HR+C0708)
Correct for Stray Light: No (HR+C0708)
Number of Pixels in Processed Spectrum: 2048
>>>>>Begin Processed Spectral Data<<<<<
188.76	0.506
189.23	0.185
189.70	0.447
190.17	0.355
190.64	0.113
191.12	0.981
191.59	0.342
192.06	0.094
192.53	0.585
193.01	0.286
193.48	-0.113
193.95	-0.094
194.42	0.400
194.90	0.380
195.37	-0.259
195.84	-0.000
196.31	-0.000
196.78	0.545
197.26	-0.041
197.73	0.915
198.20	0.374
198.67	-0.000
199.14	0.101
199.62	0.101
200.09	0.223
200.56	0.249
201.03	0.492
201.50	0.658
201.97	0.485
202.45	0.447
202.92	0.844
203.39	0.501
203.86	0.426
204.33	0.316
204.80	0.647
205.28	0.410
205.75	0.288
206.22	0.494
206.69	0.504
207.16	0.346
207.63	0.432
208.11	0.733
208.58	0.347
209.05	0.397
209.52	0.427
209.99	0.437
210.46	0.404
210.93	0.453
211.41	0.747
211.88	0.421
212.35	0.386
212.82	0.504
213.29	0.951
213.76	0.432
214.23	0.296
214.70	0.628
215.18	0.616
215.65	0.462
216.12	0.468
216.59	0.605
217.06	0.573
217.53	0.364
218.00	0.475
218.47	0.575
218.94	0.325
219.41	0.313
219.89	0.466
220.36	0.556
220.83	0.545
221.30	0.386
221.77	0.584
222.24	0.579
222.71	0.476
223.18	0.529
223.65	0.743
224.12	0.548
224.59	0.505
225.06	0.640
225.54	0.641
226.01	0.649
226.48	0.703
226.95	0.943
227.42	1.102
227.89	0.716
228.36	0.929
228.83	1.298
229.30	1.066
229.77	1.092
230.24	2.081
230.71	1.256
231.18	1.165
231.65	1.219
232.12	1.403
232.59	1.425
233.06	1.340
233.53	1.635
234.00	1.454
234.47	1.542
234.94	1.648
235.41	1.816
235.88	1.792
236.35	1.685
236.82	1.835
237.29	2.031
237.76	1.805
238.23	1.898
238.70	2.062
239.17	2.144
239.64	2.282
240.11	2.076
240.58	2.086
241.05	2.056
241.52	2.066
241.99	2.115
242.46	2.441
242.93	2.264
243.40	2.275
243.87	2.389
244.34	2.314
244.81	2.244
245.28	2.330
245.75	2.462
246.22	2.177
246.69	2.290
247.16	2.587
247.63	2.749
248.10	2.545
248.57	2.197
249.04	2.695
249.51	2.453
249.98	2.352
250.45	2.572
250.92	2.310
251.39	2.490
251.85	2.361
252.32	2.485
252.79	2.430
253.26	2.457
253.73	2.775
254.20	2.743
254.67	2.558
255.14	2.299
255.61	2.495
256.08	2.645
256.55	2.589
257.02	2.439
257.49	2.592
257.95	2.579
258.42	2.553
258.89	2.563
259.36	2.880
259.83	2.670
260.30	2.652
260.77	2.741
261.24	2.737
261.71	2.554
262.17	2.508
262.64	2.776
263.11	2.717
263.58	2.552
264.05	2.566
264.52	2.650
264.99	2.722
265.46	2.551
265.92	2.703
266.39	2.676
266.86	2.504
267.33	2.528
267.80	2.737
268.27	2.783
268.74	2.586
269.20	2.678
269.67	2.698
270.14	2.673
270.61	2.666
271.08	2.719
271.55	2.567
272.01	2.421
272.48	2.482
272.95	2.735
273.42	2.623
273.89	2.475
274.36	2.605
274.82	2.814
275.29	2.577
275.76	2.477
276.23	2.674
276.70	2.612
277.16	2.605
277.63	2.687
278.10	2.687
278.57	2.496
279.04	2.411
279.50	2.518
279.97	2.437
280.44	2.579
280.91	2.511
281.38	2.480
281.84	2.859
282.31	2.537
282.78	2.551
283.25	2.634
283.72	2.494
284.18	2.525
284.65	2.585
285.12	2.584
285.59	2.477
286.05	2.429
286.52	2.602
286.99	2.706
287.46	2.591
287.92	2.588
288.39	2.851
288.86	2.506
289.33	2.437
289.79	2.589
290.26	2.649
290.73	2.467
291.20	2.447
291.66	2.908
292.13	2.521
292.60	2.464
293.07	2.536
293.53	2.719
294.00	2.405
294.47	2.450
294.93	2.679
295.40	2.628
295.87	2.421
296.34	2.517
296.80	2.771
297.27	2.490
297.74	2.480
298.20	2.564
298.67	2.570
299.14	2.493
299.60	2.432
300.07	2.387
300.54	2.466
301.01	2.349
301.47	2.486
301.94	2.511
302.41	2.366
302.87	2.362
303.34	2.446
303.81	2.321
304.27	2.309
304.74	2.348
305.21	2.446
305.67	2.393
306.14	2.371
306.61	2.335
307.07	2.358
307.54	2.368
308.01	2.487
308.47	2.465
308.94	2.516
309.40	2.301
309.87	2.411
310.34	2.412
310.80	2.341
311.27	2.346
311.74	2.589
312.20	2.401
312.67	2.364
313.13	2.360
313.60	2.303
314.07	2.472
314.53	2.277
315.00	2.452
315.47	2.462
315.93	2.330
316.40	2.328
316.86	2.430
317.33	2.361
317.80	2.265
318.26	2.289
318.73	2.364
319.19	2.363
319.66	2.274
320.13	2.293
320.59	2.361
321.06	2.216
321.52	2.194
321.99	2.210
322.45	2.255
322.92	2.134
323.39	2.171
323.85	2.153
324.32	2.141
324.78	2.152
325.25	2.181
325.71	2.166
326.18	2.104
326.64	2.157
327.11	2.135
327.58	2.135
328.04	2.045
328.51	2.124
328.97	2.119
329.44	2.056
329.90	2.043
330.37	2.099
330.83	2.110
331.30	2.070
331.76	2.085
332.23	2.155
332.69	2.114
333.16	2.078
333.62	2.243
334.09	2.151
334.56	2.141
335.02	2.092
335.49	2.158
335.95	2.109
336.42	2.080
336.88	2.102
337.35	2.204
337.81	2.132
338.28	1.960
338.74	2.069
339.20	2.206
339.67	2.120
340.13	2.064
340.60	2.101
341.06	2.090
341.53	2.057
341.99	2.037
342.46	2.092
342.92	2.023
343.39	2.032
343.85	2.069
344.32	2.126
344.78	1.973
345.25	2.007
345.71	1.970
346.17	1.952
346.64	1.892
347.10	1.918
347.57	1.909
348.03	1.883
348.50	1.853
348.96	1.796
349.43	1.787
349.89	1.738
350.35	1.657
350.82	1.670
351.28	1.604
351.75	1.551
352.21	1.493
352.67	1.474
353.14	1.387
353.60	1.339
354.07	1.286
354.53	1.242
355.00	1.150
355.46	1.076
355.92	1.015
356.39	0.920
356.85	0.834
357.31	0.762
357.78	0.677
358.24	0.608
358.71	0.536
359.17	0.475
359.63	0.420
360.10	0.376
360.56	0.325
361.03	0.287
361.49	0.253
361.95	0.226
362.42	0.202
362.88	0.185
363.34	0.169
363.81	0.155
364.27	0.141
364.73	0.133
365.20	0.126
365.66	0.122
366.12	0.118
366.59	0.109
367.05	0.108
367.51	0.103
367.98	0.099
368.44	0.100
368.90	0.095
369.37	0.095
369.83	0.096
370.29	0.092
370.76	0.088
371.22	0.090
371.68	0.088
372.15	0.086
372.61	0.086
373.07	0.088
373.54	0.087
374.00	0.087
374.46	0.087
374.92	0.085
375.39	0.083
375.85	0.085
376.31	0.082
376.78	0.083
377.24	0.083
377.70	0.084
378.16	0.081
378.63	0.080
379.09	0.079
379.55	0.082
380.01	0.079
380.48	0.081
380.94	0.081
381.40	0.080
381.87	0.079
382.33	0.079
382.79	0.079
383.25	0.077
383.72	0.078
384.18	0.075
384.64	0.075
385.10	0.076
385.56	0.075
386.03	0.077
386.49	0.075
386.95	0.074
387.41	0.076
387.88	0.075
388.34	0.074
388.80	0.075
389.26	0.072
389.72	0.075
390.19	0.074
390.65	0.071
391.11	0.074
391.57	0.075
392.04	0.071
392.50	0.073
392.96	0.073
393.42	0.072
393.88	0.073
394.34	0.073
394.81	0.070
395.27	0.068
395.73	0.070
396.19	0.068
396.65	0.073
397.12	0.070
397.58	0.071
398.04	0.073
398.50	0.070
398.96	0.069
399.42	0.070
399.89	0.069
400.35	0.069
400.81	0.069
401.27	0.068
401.73	0.068
402.19	0.066
402.65	0.067
403.12	0.065
403.58	0.065
404.04	0.064
404.50	0.063
404.96	0.064
405.42	0.062
405.88	0.062
406.34	0.064
406.81	0.065
407.27	0.061
407.73	0.063
408.19	0.060
408.65	0.060
409.11	0.059
409.57	0.061
410.03	0.060
410.49	0.056
410.96	0.060
411.42	0.056
411.88	0.059
412.34	0.059
412.80	0.059
413.26	0.059
413.72	0.058
414.18	0.057
414.64	0.056
415.10	0.057
415.56	0.055
416.02	0.053
416.48	0.054
416.95	0.056
417.41	0.056
417.87	0.055
418.33	0.055
418.79	0.055
419.25	0.055
419.71	0.056
420.17	0.054
420.63	0.053
421.09	0.053
421.55	0.054
422.01	0.054
422.47	0.054
422.93	0.057
423.39	0.058
423.85	0.055
424.31	0.055
424.77	0.052
425.23	0.055
425.69	0.051
426.15	0.054
426.61	0.053
427.07	0.052
427.53	0.053
427.99	0.055
428.45	0.052
428.91	0.051
429.37	0.050
429.83	0.052
430.29	0.053
430.75	0.053
431.21	0.053
431.67	0.052
432.13	0.052
432.59	0.051
433.05	0.051
433.51	0.054
433.97	0.050
434.43	0.053
434.89	0.052
435.35	0.049
435.81	0.048
436.27	0.049
436.73	0.053
437.19	0.050
437.65	0.050
438.11	0.049
438.57	0.048
439.03	0.047
439.48	0.047
439.94	0.049
440.40	0.047
440.86	0.048
441.32	0.046
441.78	0.047
442.24	0.050
442.70	0.051
443.16	0.049
443.62	0.051
444.08	0.046
444.54	0.048
444.99	0.048
445.45	0.048
445.91	0.046
446.37	0.047
446.83	0.047
447.29	0.048
447.75	0.049
448.21	0.048
448.67	0.044
449.12	0.047
449.58	0.047
450.04	0.048
450.50	0.046
450.96	0.047
451.42	0.047
451.88	0.048
452.34	0.046
452.79	0.043
453.25	0.048
453.71	0.045
454.17	0.044
454.63	0.046
455.09	0.049
455.55	0.049
456.00	0.048
456.46	0.046
456.92	0.045
457.38	0.043
457.84	0.045
458.30	0.046
458.75	0.046
459.21	0.046
459.67	0.048
460.13	0.046
460.59	0.048
461.04	0.045
461.50	0.047
461.96	0.046
462.42	0.048
462.88	0.045
463.33	0.046
463.79	0.046
464.25	0.046
464.71	0.047
465.17	0.046
465.62	0.047
466.08	0.047
466.54	0.045
467.00	0.047
467.46	0.045
467.91	0.044
468.37	0.046
468.83	0.047
469.29	0.046
469.74	0.046
470.20	0.047
470.66	0.049
471.12	0.050
471.57	0.047
472.03	0.048
472.49	0.047
472.95	0.048
473.40	0.047
473.86	0.050
474.32	0.047
474.78	0.047
475.23	0.048
475.69	0.047
476.15	0.048
476.60	0.048
477.06	0.049
477.52	0.046
477.98	0.048
478.43	0.048
478.89	0.048
479.35	0.048
479.80	0.047
480.26	0.047
480.72	0.046
481.18	0.049
481.63	0.048
482.09	0.045
482.55	0.048
483.00	0.048
483.46	0.047
483.92	0.045
484.37	0.048
484.83	0.049
485.29	0.049
485.74	0.048
486.20	0.048
486.66	0.050
487.11	0.047
487.57	0.047
488.03	0.050
488.48	0.047
488.94	0.049
489.40	0.048
489.85	0.048
490.31	0.048
490.77	0.047
491.22	0.047
491.68	0.047
492.13	0.049
492.59	0.048
493.05	0.048
493.50	0.049
493.96	0.048
494.42	0.048
494.87	0.048
495.33	0.047
495.78	0.051
496.24	0.049
496.70	0.050
497.15	0.048
497.61	0.050
498.06	0.049
498.52	0.049
498.98	0.049
499.43	0.049
499.89	0.048
500.34	0.048
500.80	0.049
501.25	0.048
501.71	0.049
502.17	0.051
502.62	0.049
503.08	0.050
503.53	0.047
503.99	0.048
504.44	0.047
504.90	0.048
505.36	0.048
505.81	0.049
506.27	0.051
506.72	0.049
507.18	0.050
507.63	0.048
508.09	0.049
508.54	0.050
509.00	0.048
509.45	0.048
509.91	0.046
510.36	0.049
510.82	0.045
511.27	0.051
511.73	0.049
512.19	0.048
512.64	0.049
513.10	0.047
513.55	0.047
514.01	0.046
514.46	0.049
514.92	0.049
515.37	0.048
515.83	0.048
516.28	0.048
516.73	0.049
517.19	0.046
517.64	0.044
518.10	0.047
518.55	0.047
519.01	0.047
519.46	0.049
519.92	0.047
520.37	0.048
520.83	0.049
521.28	0.047
521.74	0.047
522.19	0.047
522.65	0.048
523.10	0.049
523.55	0.046
524.01	0.046
524.46	0.048
524.92	0.046
525.37	0.047
525.83	0.048
526.28	0.049
526.73	0.049
527.19	0.050
527.64	0.048
528.10	0.049
528.55	0.049
529.01	0.049
529.46	0.047
529.91	0.048
530.37	0.049
530.82	0.047
531.28	0.048
531.73	0.048
532.18	0.049
532.64	0.049
533.09	0.051
533.54	0.050
534.00	0.050
534.45	0.050
534.91	0.052
535.36	0.052
535.81	0.053
536.27	0.054
536.72	0.053
537.17	0.052
537.63	0.051
538.08	0.053
538.54	0.055
538.99	0.056
539.44	0.054
539.90	0.054
540.35	0.053
540.80	0.053
541.26	0.056
541.71	0.057
542.16	0.058
542.62	0.058
543.07	0.059
543.52	0.057
543.98	0.058
544.43	0.059
544.88	0.059
545.34	0.060
545.79	0.059
546.24	0.059
546.69	0.061
547.15	0.061
547.60	0.063
548.05	0.061
548.51	0.063
548.96	0.061
549.41	0.064
549.86	0.061
550.32	0.064
550.77	0.064
551.22	0.064
551.68	0.066
552.13	0.067
552.58	0.067
553.03	0.066
553.49	0.068
553.94	0.069
554.39	0.070
554.84	0.071
555.30	0.071
555.75	0.073
556.20	0.072
556.65	0.073
557.11	0.076
557.56	0.074
558.01	0.075
558.46	0.076
558.92	0.076
559.37	0.078
559.82	0.078
560.27	0.079
560.72	0.080
561.18	0.080
561.63	0.081
562.08	0.081
562.53	0.082
562.99	0.086
563.44	0.085
563.89	0.083
564.34	0.085
564.79	0.086
565.25	0.087
565.70	0.090
566.15	0.090
566.60	0.089
567.05	0.091
567.50	0.093
567.96	0.092
568.41	0.093
568.86	0.095
569.31	0.095
569.76	0.096
570.21	0.097
570.67	0.096
571.12	0.098
571.57	0.099
572.02	0.102
572.47	0.100
572.92	0.105
573.37	0.105
573.83	0.106
574.28	0.107
574.73	0.108
575.18	0.107
575.63	0.110
576.08	0.109
576.53	0.112
576.98	0.113
577.44	0.115
577.89	0.114
578.34	0.116
578.79	0.116
579.24	0.119
579.69	0.120
580.14	0.122
580.59	0.125
581.04	0.124
581.49	0.127
581.95	0.128
582.40	0.129
582.85	0.130
583.30	0.133
583.75	0.134
584.20	0.136
584.65	0.140
585.10	0.140
585.55	0.142
586.00	0.143
586.45	0.144
586.90	0.148
587.35	0.149
587.80	0.151
588.25	0.154
588.71	0.157
589.16	0.157
589.61	0.160
590.06	0.163
590.51	0.164
590.96	0.167
591.41	0.168
591.86	0.169
592.31	0.177
592.76	0.174
593.21	0.179
593.66	0.180
594.11	0.183
594.56	0.187
595.01	0.188
595.46	0.192
595.91	0.195
596.36	0.195
596.81	0.199
597.26	0.202
597.71	0.204
598.16	0.206
598.61	0.208
599.06	0.210
599.51	0.213
599.96	0.218
600.41	0.221
600.86	0.221
601.31	0.221
601.76	0.227
602.21	0.229
602.65	0.229
603.10	0.233
603.55	0.237
604.00	0.238
604.45	0.241
604.90	0.243
605.35	0.245
605.80	0.249
606.25	0.251
606.70	0.255
607.15	0.253
607.60	0.255
608.05	0.258
608.50	0.259
608.95	0.260
609.39	0.264
609.84	0.267
610.29	0.267
610.74	0.266
611.19	0.270
611.64	0.273
612.09	0.276
612.54	0.274
612.99	0.273
613.44	0.276
613.88	0.275
614.33	0.278
614.78	0.280
615.23	0.283
615.68	0.281
616.13	0.282
616.58	0.283
617.03	0.283
617.47	0.283
617.92	0.287
618.37	0.287
618.82	0.286
619.27	0.286
619.72	0.286
620.17	0.288
620.61	0.289
621.06	0.289
621.51	0.291
621.96	0.290
622.41	0.291
622.86	0.292
623.30	0.292
623.75	0.293
624.20	0.294
624.65	0.293
625.10	0.296
625.54	0.297
625.99	0.297
626.44	0.300
626.89	0.301
627.34	0.300
627.78	0.305
628.23	0.305
628.68	0.307
629.13	0.310
629.58	0.309
630.02	0.311
630.47	0.314
630.92	0.316
631.37	0.317
631.81	0.320
632.26	0.321
632.71	0.325
633.16	0.327
633.61	0.327
634.05	0.330
634.50	0.331
634.95	0.335
635.40	0.340
635.84	0.341
636.29	0.343
636.74	0.345
637.18	0.350
637.63	0.352
638.08	0.354
638.53	0.361
638.97	0.363
639.42	0.365
639.87	0.369
640.32	0.373
640.76	0.378
641.21	0.379
641.66	0.382
642.10	0.387
642.55	0.392
643.00	0.394
643.44	0.397
643.89	0.404
644.34	0.408
644.79	0.411
645.23	0.417
645.68	0.423
646.13	0.427
646.57	0.431
647.02	0.434
647.47	0.440
647.91	0.442
648.36	0.449
648.81	0.452
649.25	0.453
649.70	0.459
650.15	0.465
650.59	0.468
651.04	0.473
651.48	0.475
651.93	0.482
652.38	0.484
652.82	0.487
653.27	0.491
653.72	0.496
654.16	0.503
654.61	0.505
655.06	0.507
655.50	0.511
655.95	0.511
656.39	0.517
656.84	0.520
657.29	0.524
657.73	0.524
658.18	0.531
658.62	0.535
659.07	0.538
659.52	0.540
659.96	0.543
660.41	0.544
660.85	0.546
661.30	0.549
661.74	0.553
662.19	0.554
662.64	0.555
663.08	0.559
663.53	0.560
663.97	0.559
664.42	0.561
664.86	0.560
665.31	0.565
665.75	0.564
666.20	0.563
666.65	0.565
667.09	0.560
667.54	0.559
667.98	0.554
668.43	0.558
668.87	0.551
669.32	0.548
669.76	0.546
670.21	0.543
670.65	0.536
671.10	0.534
671.54	0.527
671.99	0.520
672.43	0.512
672.88	0.505
673.32	0.503
673.77	0.492
674.21	0.486
674.66	0.478
675.10	0.469
675.55	0.458
675.99	0.448
676.44	0.441
676.88	0.430
677.33	0.421
677.77	0.410
678.22	0.398
678.66	0.392
679.11	0.378
679.55	0.369
679.99	0.357
680.44	0.347
680.88	0.337
681.33	0.325
681.77	0.313
682.22	0.306
682.66	0.295
683.11	0.286
683.55	0.275
683.99	0.266
684.44	0.255
684.88	0.247
685.33	0.236
685.77	0.227
686.21	0.221
686.66	0.209
687.10	0.202
687.55	0.195
687.99	0.187
688.44	0.179
688.88	0.171
689.32	0.164
689.77	0.158
690.21	0.151
690.65	0.145
691.10	0.139
691.54	0.132
691.99	0.127
692.43	0.122
692.87	0.118
693.32	0.111
693.76	0.109
694.20	0.105
694.65	0.100
695.09	0.095
695.53	0.092
695.98	0.089
696.42	0.085
696.86	0.081
697.31	0.078
697.75	0.076
698.19	0.071
698.64	0.070
699.08	0.069
699.52	0.066
699.97	0.063
700.41	0.063
700.85	0.061
701.30	0.058
701.74	0.054
702.18	0.053
702.63	0.053
703.07	0.051
703.51	0.050
703.96	0.049
704.40	0.046
704.84	0.044
705.28	0.043
705.73	0.043
706.17	0.042
706.61	0.039
707.06	0.041
707.50	0.038
707.94	0.036
708.38	0.037
708.83	0.037
709.27	0.035
709.71	0.034
710.15	0.034
710.60	0.035
711.04	0.034
711.48	0.031
711.92	0.033
712.37	0.030
712.81	0.028
713.25	0.029
713.69	0.033
714.13	0.027
714.58	0.027
715.02	0.027
715.46	0.027
715.90	0.027
716.35	0.030
716.79	0.026
717.23	0.028
717.67	0.029
718.11	0.028
718.56	0.024
719.00	0.028
719.44	0.029
719.88	0.027
720.32	0.027
720.76	0.027
721.21	0.028
721.65	0.027
722.09	0.028
722.53	0.027
722.97	0.025
723.41	0.024
723.86	0.028
724.30	0.026
724.74	0.027
725.18	0.027
725.62	0.028
726.06	0.028
726.50	0.027
726.95	0.027
727.39	0.027
727.83	0.026
728.27	0.024
728.71	0.026
729.15	0.028
729.59	0.027
730.03	0.026
730.48	0.028
730.92	0.025
731.36	0.027
731.80	0.026
732.24	0.027
732.68	0.028
733.12	0.028
733.56	0.027
734.00	0.029
734.44	0.028
734.89	0.030
735.33	0.030
735.77	0.028
736.21	0.028
736.65	0.030
737.09	0.028
737.53	0.030
737.97	0.028
738.41	0.029
738.85	0.035
739.29	0.030
739.73	0.027
740.17	0.029
740.61	0.028
741.05	0.028
741.49	0.030
741.93	0.030
742.37	0.028
742.81	0.030
743.26	0.029
743.70	0.027
744.14	0.031
744.58	0.031
745.02	0.031
745.46	0.033
745.90	0.028
746.34	0.028
746.78	0.027
747.22	0.030
747.66	0.029
748.10	0.029
748.54	0.029
748.98	0.030
749.42	0.031
749.86	0.031
750.29	0.030
750.73	0.031
751.17	0.029
751.61	0.028
752.05	0.033
752.49	0.028
752.93	0.030
753.37	0.029
753.81	0.030
754.25	0.027
754.69	0.028
755.13	0.029
755.57	0.028
756.01	0.026
756.45	0.028
756.89	0.031
757.33	0.029
757.77	0.027
758.21	0.027
758.64	0.029
759.08	0.028
759.52	0.029
759.96	0.026
760.40	0.028
760.84	0.030
761.28	0.031
761.72	0.028
762.16	0.029
762.60	0.029
763.03	0.029
763.47	0.028
763.91	0.030
764.35	0.028
764.79	0.030
765.23	0.027
765.67	0.031
766.11	0.029
766.54	0.028
766.98	0.027
767.42	0.027
767.86	0.027
768.30	0.028
768.74	0.028
769.17	0.028
769.61	0.031
770.05	0.028
770.49	0.028
770.93	0.030
771.37	0.028
771.80	0.028
772.24	0.030
772.68	0.028
773.12	0.027
773.56	0.032
774.00	0.029
774.43	0.030
774.87	0.027
775.31	0.028
775.75	0.029
776.19	0.028
776.62	0.031
777.06	0.029
777.50	0.027
777.94	0.032
778.37	0.026
778.81	0.027
779.25	0.031
779.69	0.029
780.13	0.027
780.56	0.030
781.00	0.031
781.44	0.028
781.88	0.030
782.31	0.030
782.75	0.029
783.19	0.029
783.63	0.029
784.06	0.026
784.50	0.028
784.94	0.026
785.37	0.030
785.81	0.028
786.25	0.027
786.69	0.030
787.12	0.030
787.56	0.026
788.00	0.026
788.43	0.029
788.87	0.025
789.31	0.031
789.75	0.031
790.18	0.030
790.62	0.027
791.06	0.028
791.49	0.027
791.93	0.027
792.37	0.024
792.80	0.028
793.24	0.027
793.68	0.028
794.11	0.027
794.55	0.028
794.99	0.031
795.42	0.026
795.86	0.027
796.30	0.027
796.73	0.031
797.17	0.029
797.61	0.030
798.04	0.028
798.48	0.027
798.91	0.027
799.35	0.024
799.79	0.028
800.22	0.025
800.66	0.024
801.10	0.027
801.53	0.030
801.97	0.029
802.40	0.024
802.84	0.028
803.28	0.025
803.71	0.028
804.15	0.028
804.58	0.028
805.02	0.025
805.46	0.028
805.89	0.030
806.33	0.028
806.76	0.029
807.20	0.022
807.63	0.023
808.07	0.029
808.51	0.025
808.94	0.030
809.38	0.029
809.81	0.026
810.25	0.029
810.68	0.030
811.12	0.026
811.55	0.026
811.99	0.028
812.42	0.028
812.86	0.030
813.29	0.031
813.73	0.031
814.17	0.028
814.60	0.028
815.04	0.027
815.47	0.029
815.91	0.026
816.34	0.027
816.78	0.030
817.21	0.027
817.65	0.028
818.08	0.027
818.52	0.036
818.95	0.030
819.39	0.025
819.82	0.027
820.25	0.030
820.69	0.029
821.12	0.026
821.56	0.027
821.99	0.023
822.43	0.028
822.86	0.025
823.30	0.026
823.73	0.027
824.17	0.028
824.60	0.029
825.04	0.029
825.47	0.029
825.90	0.028
826.34	0.028
826.77	0.033
827.21	0.028
827.64	0.028
828.08	0.034
828.51	0.028
828.94	0.029
829.38	0.030
829.81	0.034
830.25	0.030
830.68	0.035
831.11	0.037
831.55	0.039
831.98	0.027
832.42	0.030
832.85	0.039
833.28	0.034
833.72	0.038
834.15	0.033
834.58	0.037
835.02	0.035
835.45	0.029
835.88	0.035
836.32	0.037
836.75	0.034
837.19	0.035
837.62	0.036
838.05	0.030
838.49	0.037
838.92	0.036
839.35	0.040
839.79	0.031
840.22	0.032
840.65	0.038
841.09	0.036
841.52	0.034
841.95	0.038
842.39	0.036
842.82	0.040
843.25	0.037
843.68	0.043
844.12	0.044
844.55	0.035
844.98	0.040
845.42	0.044
845.85	0.038
846.28	0.033
846.71	0.042
847.15	0.041
847.58	0.044
848.01	0.033
848.45	0.043
848.88	0.041
849.31	0.032
849.74	0.033
850.18	0.045
850.61	0.040
851.04	0.039
851.47	0.037
851.91	0.037
852.34	0.041
852.77	0.043
853.20	0.045
853.64	0.037
854.07	0.033
854.50	0.035
854.93	0.040
855.36	0.032
855.80	0.035
856.23	0.040
856.66	0.040
857.09	0.042
857.52	0.040
857.96	0.042
858.39	0.039
858.82	0.040
859.25	0.043
859.68	0.039
860.12	0.035
860.55	0.039
860.98	0.044
861.41	0.035
861.84	0.044
862.27	0.039
862.71	0.047
863.14	0.042
863.57	0.040
864.00	0.044
864.43	0.040
864.86	0.038
865.30	0.041
865.73	0.049
866.16	0.041
866.59	0.039
867.02	0.040
867.45	0.036
867.88	0.041
868.31	0.039
868.75	0.048
869.18	0.047
869.61	0.047
870.04	0.044
870.47	0.045
870.90	0.046
871.33	0.038
871.76	0.042
872.19	0.047
872.62	0.047
873.06	0.042
873.49	0.051
873.92	0.042
874.35	0.048
874.78	0.045
875.21	0.049
875.64	0.043
876.07	0.037
876.50	0.048
876.93	0.051
877.36	0.046
877.79	0.045
878.22	0.053
878.65	0.051
879.08	0.044
879.51	0.047
879.94	0.052
880.37	0.042
880.80	0.046
881.23	0.043
881.67	0.051
882.10	0.049
882.53	0.048
882.96	0.051
883.39	0.054
883.82	0.052
884.25	0.046
884.68	0.055
885.11	0.046
885.54	0.050
885.97	0.054
886.39	0.047
886.82	0.054
887.25	0.053
887.68	0.053
888.11	0.053
888.54	0.052
888.97	0.050
889.40	0.051
889.83	0.054
890.26	0.052
890.69	0.055
891.12	0.058
891.55	0.054
891.98	0.053
892.41	0.055
892.84	0.054
893.27	0.051
893.70	0.053
894.13	0.056
894.56	0.052
894.98	0.057
895.41	0.055
895.84	0.055
896.27	0.055
896.70	0.058
897.13	0.060
897.56	0.054
897.99	0.056
898.42	0.056
898.85	0.061
899.27	0.055
899.70	0.053
900.13	0.051
900.56	0.059
900.99	0.052
901.42	0.059
901.85	0.058
902.28	0.059
902.70	0.055
903.13	0.055
903.56	0.059
903.99	0.056
904.42	0.057
904.85	0.057
905.27	0.059
905.70	0.060
906.13	0.059
906.56	0.061
906.99	0.061
907.42	0.060
907.84	0.061
908.27	0.057
908.70	0.057
909.13	0.057
909.56	0.062
909.98	0.057
910.41	0.062
910.84	0.054
911.27	0.057
911.70	0.061
912.12	0.058
912.55	0.061
912.98	0.059
913.41	0.058
913.84	0.059
914.26	0.062
914.69	0.060
915.12	0.057
915.55	0.056
915.97	0.059
916.40	0.056
916.83	0.059
917.26	0.061
917.68	0.059
918.11	0.059
918.54	0.055
918.97	0.057
919.39	0.060
919.82	0.062
920.25	0.062
920.67	0.059
921.10	0.060
921.53	0.060
921.96	0.063
922.38	0.062
922.81	0.066
923.24	0.062
923.66	0.064
924.09	0.065
924.52	0.066
924.94	0.064
925.37	0.065
925.80	0.064
926.22	0.065
926.65	0.064
927.08	0.072
927.50	0.071
927.93	0.075
928.36	0.072
928.78	0.069
929.21	0.071
929.64	0.073
930.06	0.074
930.49	0.075
930.92	0.069
931.34	0.077
931.77	0.080
932.20	0.074
932.62	0.081
933.05	0.080
933.47	0.082
933.90	0.082
934.33	0.080
934.75	0.089
935.18	0.086
935.61	0.087
936.03	0.098
936.46	0.086
936.88	0.092
937.31	0.091
937.73	0.094
938.16	0.095
938.59	0.098
939.01	0.102
939.44	0.098
939.86	0.096
940.29	0.098
940.71	0.105
941.14	0.102
941.57	0.117
941.99	0.112
942.42	0.114
942.84	0.110
943.27	0.116
943.69	0.118
944.12	0.123
944.54	0.121
944.97	0.133
945.39	0.124
945.82	0.125
946.24	0.126
946.67	0.138
947.09	0.144
947.52	0.132
947.94	0.137
948.37	0.145
948.79	0.143
949.22	0.136
949.64	0.148
950.07	0.136
950.49	0.150
950.92	0.154
951.34	0.158
951.77	0.166
952.19	0.161
952.62	0.165
953.04	0.170
953.47	0.169
953.89	0.173
954.32	0.170
954.74	0.180
955.17	0.190
955.59	0.186
956.01	0.196
956.44	0.195
956.86	0.187
957.29	0.197
957.71	0.204
958.14	0.200
958.56	0.201
958.98	0.204
959.41	0.207
959.83	0.206
960.26	0.208
960.68	0.211
961.10	0.210
961.53	0.207
961.95	0.215
962.38	0.217
962.80	0.211
963.22	0.219
963.65	0.224
964.07	0.216
964.50	0.221
964.92	0.220
965.34	0.223
965.77	0.224
966.19	0.219
966.61	0.232
967.04	0.225
967.46	0.224
967.88	0.224
968.31	0.222
968.73	0.224
969.15	0.224
969.58	0.223
970.00	0.224
970.42	0.232
970.85	0.225
971.27	0.225
971.69	0.230
972.12	0.232
972.54	0.228
972.96	0.235
973.39	0.241
973.81	0.224
974.23	0.240
974.65	0.232
975.08	0.227
975.50	0.227
975.92	0.235
976.35	0.230
976.77	0.232
977.19	0.232
977.61	0.231
978.04	0.228
978.46	0.230
978.88	0.236
979.30	0.237
979.73	0.231
980.15	0.227
980.57	0.235
980.99	0.235
981.42	0.237
981.84	0.230
982.26	0.227
982.68	0.233
983.11	0.227
983.53	0.238
983.95	0.228
984.37	0.227
984.79	0.238
985.22	0.231
985.64	0.231
986.06	0.219
986.48	0.232
986.90	0.225
987.33	0.232
987.75	0.225
988.17	0.234
988.59	0.232
989.01	0.225
989.43	0.220
989.86	0.222
990.28	0.227
990.70	0.222
991.12	0.219
991.54	0.218
991.96	0.228
992.39	0.222
992.81	0.219
993.23	0.222
993.65	0.221
994.07	0.213
994.49	0.212
994.91	0.211
995.34	0.213
995.76	0.211
996.18	0.223
996.60	0.210
997.02	0.220
997.44	0.210
997.86	0.218
998.28	0.214
998.70	0.217
999.12	0.219
999.55	0.209
999.97	0.206
1000.39	0.211
1000.81	0.215
1001.23	0.205
1001.65	0.206
1002.07	0.203
1002.49	0.197
1002.91	0.205
1003.33	0.202
1003.75	0.210
1004.17	0.203
1004.59	0.204
1005.01	0.202
1005.43	0.204
1005.85	0.200
1006.28	0.198
1006.70	0.200
1007.12	0.197
1007.54	0.199
1007.96	0.199
1008.38	0.197
1008.80	0.185
1009.22	0.199
1009.64	0.189
1010.06	0.194
1010.48	0.192
1010.90	0.184
1011.32	0.185
1011.74	0.184
1012.16	0.182
1012.58	0.180
1013.00	0.185
1013.42	0.167
1013.84	0.174
1014.26	0.178
1014.67	0.187
1015.09	0.173
1015.51	0.168
1015.93	0.176
1016.35	0.180
1016.77	0.164
1017.19	0.167
1017.61	0.170
1018.03	0.174
1018.45	0.168
1018.87	0.166
1019.29	0.172
1019.71	0.157
1020.13	0.158
1020.55	0.169
1020.97	0.158
1021.38	0.162
1021.80	0.160
1022.22	0.173
1022.64	0.163
1023.06	0.152
1023.48	0.155
1023.90	0.162
1024.32	0.143
1024.74	0.159
1025.15	0.155
1025.57	0.154
1025.99	0.149
1026.41	0.153
1026.83	0.148
1027.25	0.153
1027.67	0.149
1028.08	0.143
1028.50	0.159
1028.92	0.136
1029.34	0.134
1029.76	0.141
1030.18	0.146
1030.60	0.146
1031.01	0.131
1031.43	0.134
1031.85	0.131
1032.27	0.145
1032.69	0.128
1033.10	0.141
1033.52	0.134
1033.94	0.133
1034.36	0.131
1034.78	0.141
1035.19	0.114
1035.61	0.134
1036.03	0.118
1036.45	0.121
1036.87	0.126
1037.28	0.127
1037.70	0.122
1038.12	0.104
1038.54	0.116
1038.95	0.127
1039.37	0.124
1039.79	0.121
1040.21	0.119
1040.62	0.134
1041.04	0.132
1041.46	0.125
1041.88	0.124
1042.29	0.125
1042.71	0.097
1043.13	0.105
1043.55	0.120
1043.96	0.101
1044.38	0.118
1044.80	0.106
1045.21	0.132
1045.63	0.119
1046.05	0.110
1046.47	0.102
1046.88	0.114
1047.30	0.101
1047.72	0.119
1048.13	0.119
1048.55	0.118
1048.97	0.104
1049.38	0.110
1049.80	0.118
1050.22	0.110
1050.63	0.097
1051.05	0.099
1051.47	0.111
1051.88	0.121
1052.30	0.119
1052.72	0.116
1053.13	0.101
1053.55	0.084
1053.97	0.085
1054.38	0.122
1054.80	0.098
1055.21	0.099
1055.63	0.101
1056.05	0.142
1056.46	0.075
1056.88	0.131
1057.29	0.124
1057.71	0.093
1058.13	0.087
1058.54	0.111
1058.96	0.102
1059.37	0.100
1059.79	0.150
1060.21	0.114
1060.62	0.116
1061.04	0.089
1061.45	0.103
1061.87	0.137
1062.28	0.107
1062.70	0.145
1063.12	0.127
1063.53	0.105
1063.95	0.091
1064.36	0.134
1064.78	0.175
1065.19	0.114
1065.61	0.118
1066.02	0.136
1066.44	0.125
1066.85	0.103
1067.27	0.186
1067.68	0.127
1068.10	0.081
1068.51	0.043
1068.93	0.039
1069.35	0.184
1069.76	0.096
1070.17	0.141
1070.59	0.182
1071.00	0.157
1071.42	0.128
1071.83	0.143
1072.25	0.143
1072.66	0.118
1073.08	0.146
1073.49	0.157
1073.91	0.128
1074.32	0.129
1074.74	0.130
1075.15	0.123
1075.57	0.227
1075.98	0.055
1076.40	0.094
1076.81	0.236
1077.22	0.149
1077.64	0.199
1078.05	0.291
1078.47	0.209
1078.88	0.363
1079.30	0.256
1079.71	0.204
1080.12	0.479
1080.54	-0.008
1080.95	-0.023
1081.37	0.146
1081.78	0.310
1082.19	0.224
1082.61	0.081
1083.02	0.410
1083.44	0.142
1083.85	0.336
1084.26	0.197
1084.68	0.460
1085.09	0.286
1085.50	0.357
1085.92	0.341
1086.33	-0.020
1086.74	0.083
1087.16	0.098
1087.57	0.278
1087.98	0.376
1088.40	0.192
1088.81	0.288
1089.22	0.597
1089.64	0.375
1090.05	0.044
1090.46	0.140
1090.88	0.045
1091.29	0.124
1091.70	0.545
1092.12	0.353
1092.53	0.162
1092.94	-0.026
1093.36	-0.000
1093.77	0.519
1094.18	0.607
1094.59	0.074
1095.01	0.964
1095.42	-0.000
1095.83	0.090
1096.25	0.591
1096.66	-0.000
1097.07	0.315
1097.48	0.359
1097.90	0.155
1098.31	0.167
1098.72	0.272
1099.13	0.626
>>>>>End Processed Spectral Data<<<<<
