SpectraSuite Data File
++++++++++++++++++++++++++++++++++++
Date: Tue Jul 11 13:51:59 CEST 2017
User: IPCE
Dark Spectrum Present: Yes
Reference Spectrum Present: Yes
Number of Sampled Component Spectra: 1
Spectrometers: HR+C0708
Integration Time (usec): 1000 (HR+C0708)
Spectra Averaged: 10 (HR+C0708)
Boxcar Smoothing: 0 (HR+C0708)
Correct for Electrical Dark: No (HR+C0708)
Strobe/Lamp Enabled: No (HR+C0708)
Correct for Detector Non-linearity: No (HR+C0708)
Correct for Stray Light: No (HR+C0708)
Number of Pixels in Processed Spectrum: 2048
>>>>>Begin Processed Spectral Data<<<<<
188.76	0.244
189.23	0.245
189.70	0.483
190.17	-0.060
190.64	0.202
191.12	0.235
191.59	0.415
192.06	0.522
192.53	0.224
193.01	0.541
193.48	-0.000
193.95	-0.088
194.42	0.309
194.90	0.423
195.37	-0.020
195.84	-0.000
196.31	1.005
196.78	0.529
197.26	0.778
197.73	0.149
198.20	-0.117
198.67	-0.000
199.14	-0.200
199.62	-0.111
200.09	0.407
200.56	0.249
201.03	0.462
201.50	0.489
201.97	0.392
202.45	0.556
202.92	0.562
203.39	0.399
203.86	0.518
204.33	0.396
204.80	0.380
205.28	0.679
205.75	0.356
206.22	0.455
206.69	0.382
207.16	0.449
207.63	0.587
208.11	0.403
208.58	0.347
209.05	0.544
209.52	0.403
209.99	0.470
210.46	0.528
210.93	0.393
211.41	0.679
211.88	0.357
212.35	0.403
212.82	0.501
213.29	0.531
213.76	0.379
214.23	0.344
214.70	0.598
215.18	0.466
215.65	0.665
216.12	0.460
216.59	0.469
217.06	0.677
217.53	0.455
218.00	0.450
218.47	0.610
218.94	0.532
219.41	0.715
219.89	0.460
220.36	0.627
220.83	0.695
221.30	0.353
221.77	0.458
222.24	0.753
222.71	0.452
223.18	0.597
223.65	0.679
224.12	0.569
224.59	0.630
225.06	0.584
225.54	0.702
226.01	0.899
226.48	0.644
226.95	1.084
227.42	0.942
227.89	0.876
228.36	0.994
228.83	0.992
229.30	1.239
229.77	1.212
230.24	1.232
230.71	1.409
231.18	1.208
231.65	1.160
232.12	1.551
232.59	1.495
233.06	1.316
233.53	1.626
234.00	1.454
234.47	1.674
234.94	1.870
235.41	1.715
235.88	1.865
236.35	1.857
236.82	1.796
237.29	1.852
237.76	1.947
238.23	1.869
238.70	2.022
239.17	2.067
239.64	2.422
240.11	2.231
240.58	1.972
241.05	2.165
241.52	2.461
241.99	2.100
242.46	2.282
242.93	2.359
243.40	2.185
243.87	2.294
244.34	2.267
244.81	2.249
245.28	2.398
245.75	2.436
246.22	2.188
246.69	2.547
247.16	2.395
247.63	2.585
248.10	2.599
248.57	2.272
249.04	2.666
249.51	2.487
249.98	2.368
250.45	2.362
250.92	2.322
251.39	2.471
251.85	2.386
252.32	2.371
252.79	2.296
253.26	2.514
253.73	2.442
254.20	2.351
254.67	2.234
255.14	2.135
255.61	2.160
256.08	2.142
256.55	2.084
257.02	2.059
257.49	2.031
257.95	2.025
258.42	1.998
258.89	1.993
259.36	2.001
259.83	1.920
260.30	1.889
260.77	1.907
261.24	1.880
261.71	1.875
262.17	1.894
262.64	1.848
263.11	1.845
263.58	1.828
264.05	1.784
264.52	1.814
264.99	1.808
265.46	1.776
265.92	1.787
266.39	1.751
266.86	1.751
267.33	1.745
267.80	1.728
268.27	1.721
268.74	1.738
269.20	1.703
269.67	1.716
270.14	1.708
270.61	1.669
271.08	1.682
271.55	1.663
272.01	1.644
272.48	1.661
272.95	1.643
273.42	1.640
273.89	1.623
274.36	1.605
274.82	1.627
275.29	1.611
275.76	1.602
276.23	1.598
276.70	1.594
277.16	1.595
277.63	1.611
278.10	1.583
278.57	1.596
279.04	1.568
279.50	1.568
279.97	1.559
280.44	1.569
280.91	1.556
281.38	1.547
281.84	1.580
282.31	1.570
282.78	1.567
283.25	1.558
283.72	1.536
284.18	1.563
284.65	1.558
285.12	1.557
285.59	1.545
286.05	1.542
286.52	1.571
286.99	1.567
287.46	1.548
287.92	1.547
288.39	1.541
288.86	1.538
289.33	1.535
289.79	1.549
290.26	1.542
290.73	1.536
291.20	1.531
291.66	1.545
292.13	1.520
292.60	1.519
293.07	1.520
293.53	1.510
294.00	1.504
294.47	1.493
294.93	1.503
295.40	1.483
295.87	1.490
296.34	1.470
296.80	1.473
297.27	1.443
297.74	1.420
298.20	1.425
298.67	1.412
299.14	1.400
299.60	1.392
300.07	1.380
300.54	1.377
301.01	1.374
301.47	1.349
301.94	1.350
302.41	1.331
302.87	1.318
303.34	1.322
303.81	1.330
304.27	1.295
304.74	1.285
305.21	1.267
305.67	1.283
306.14	1.278
306.61	1.258
307.07	1.244
307.54	1.241
308.01	1.230
308.47	1.231
308.94	1.219
309.40	1.213
309.87	1.210
310.34	1.201
310.80	1.188
311.27	1.189
311.74	1.180
312.20	1.188
312.67	1.179
313.13	1.172
313.60	1.164
314.07	1.159
314.53	1.137
315.00	1.145
315.47	1.143
315.93	1.142
316.40	1.141
316.86	1.135
317.33	1.136
317.80	1.124
318.26	1.108
318.73	1.119
319.19	1.108
319.66	1.097
320.13	1.099
320.59	1.091
321.06	1.091
321.52	1.084
321.99	1.078
322.45	1.074
322.92	1.078
323.39	1.063
323.85	1.055
324.32	1.053
324.78	1.052
325.25	1.054
325.71	1.043
326.18	1.040
326.64	1.031
327.11	1.028
327.58	1.032
328.04	1.033
328.51	1.022
328.97	1.025
329.44	1.019
329.90	1.002
330.37	1.006
330.83	1.002
331.30	1.004
331.76	0.996
332.23	0.993
332.69	0.997
333.16	0.993
333.62	0.991
334.09	0.989
334.56	0.990
335.02	0.975
335.49	0.982
335.95	0.973
336.42	0.967
336.88	0.965
337.35	0.966
337.81	0.969
338.28	0.963
338.74	0.969
339.20	0.980
339.67	0.975
340.13	0.974
340.60	0.968
341.06	0.964
341.53	0.954
341.99	0.953
342.46	0.947
342.92	0.945
343.39	0.945
343.85	0.928
344.32	0.932
344.78	0.931
345.25	0.933
345.71	0.939
346.17	0.930
346.64	0.925
347.10	0.925
347.57	0.910
348.03	0.897
348.50	0.895
348.96	0.875
349.43	0.883
349.89	0.878
350.35	0.864
350.82	0.858
351.28	0.836
351.75	0.836
352.21	0.819
352.67	0.820
353.14	0.798
353.60	0.776
354.07	0.759
354.53	0.741
355.00	0.709
355.46	0.690
355.92	0.671
356.39	0.642
356.85	0.611
357.31	0.599
357.78	0.561
358.24	0.535
358.71	0.511
359.17	0.478
359.63	0.452
360.10	0.428
360.56	0.393
361.03	0.371
361.49	0.351
361.95	0.329
362.42	0.312
362.88	0.294
363.34	0.280
363.81	0.264
364.27	0.254
364.73	0.245
365.20	0.238
365.66	0.232
366.12	0.227
366.59	0.218
367.05	0.215
367.51	0.211
367.98	0.204
368.44	0.205
368.90	0.202
369.37	0.197
369.83	0.196
370.29	0.196
370.76	0.191
371.22	0.190
371.68	0.187
372.15	0.187
372.61	0.185
373.07	0.186
373.54	0.182
374.00	0.183
374.46	0.177
374.92	0.178
375.39	0.178
375.85	0.174
376.31	0.175
376.78	0.176
377.24	0.175
377.70	0.174
378.16	0.173
378.63	0.173
379.09	0.168
379.55	0.170
380.01	0.167
380.48	0.170
380.94	0.165
381.40	0.166
381.87	0.167
382.33	0.165
382.79	0.162
383.25	0.163
383.72	0.163
384.18	0.162
384.64	0.160
385.10	0.159
385.56	0.157
386.03	0.160
386.49	0.161
386.95	0.157
387.41	0.160
387.88	0.154
388.34	0.153
388.80	0.154
389.26	0.153
389.72	0.156
390.19	0.157
390.65	0.152
391.11	0.152
391.57	0.153
392.04	0.151
392.50	0.149
392.96	0.151
393.42	0.149
393.88	0.150
394.34	0.149
394.81	0.146
395.27	0.146
395.73	0.148
396.19	0.145
396.65	0.147
397.12	0.143
397.58	0.144
398.04	0.146
398.50	0.144
398.96	0.145
399.42	0.143
399.89	0.142
400.35	0.143
400.81	0.141
401.27	0.139
401.73	0.140
402.19	0.141
402.65	0.137
403.12	0.136
403.58	0.134
404.04	0.133
404.50	0.134
404.96	0.134
405.42	0.134
405.88	0.134
406.34	0.131
406.81	0.133
407.27	0.130
407.73	0.131
408.19	0.126
408.65	0.132
409.11	0.128
409.57	0.128
410.03	0.128
410.49	0.122
410.96	0.127
411.42	0.123
411.88	0.124
412.34	0.125
412.80	0.124
413.26	0.125
413.72	0.125
414.18	0.121
414.64	0.120
415.10	0.125
415.56	0.120
416.02	0.118
416.48	0.121
416.95	0.121
417.41	0.124
417.87	0.119
418.33	0.117
418.79	0.115
419.25	0.118
419.71	0.119
420.17	0.116
420.63	0.115
421.09	0.117
421.55	0.116
422.01	0.116
422.47	0.117
422.93	0.117
423.39	0.118
423.85	0.119
424.31	0.117
424.77	0.114
425.23	0.115
425.69	0.113
426.15	0.113
426.61	0.110
427.07	0.113
427.53	0.113
427.99	0.111
428.45	0.112
428.91	0.112
429.37	0.108
429.83	0.110
430.29	0.115
430.75	0.112
431.21	0.111
431.67	0.111
432.13	0.108
432.59	0.109
433.05	0.111
433.51	0.110
433.97	0.111
434.43	0.112
434.89	0.107
435.35	0.106
435.81	0.107
436.27	0.108
436.73	0.110
437.19	0.109
437.65	0.107
438.11	0.109
438.57	0.110
439.03	0.108
439.48	0.105
439.94	0.108
440.40	0.105
440.86	0.105
441.32	0.105
441.78	0.107
442.24	0.105
442.70	0.107
443.16	0.105
443.62	0.108
444.08	0.102
444.54	0.101
444.99	0.103
445.45	0.105
445.91	0.102
446.37	0.102
446.83	0.104
447.29	0.103
447.75	0.103
448.21	0.102
448.67	0.101
449.12	0.104
449.58	0.100
450.04	0.103
450.50	0.102
450.96	0.102
451.42	0.102
451.88	0.103
452.34	0.102
452.79	0.101
453.25	0.100
453.71	0.100
454.17	0.100
454.63	0.098
455.09	0.103
455.55	0.104
456.00	0.100
456.46	0.100
456.92	0.100
457.38	0.098
457.84	0.097
458.30	0.097
458.75	0.098
459.21	0.098
459.67	0.102
460.13	0.099
460.59	0.099
461.04	0.100
461.50	0.099
461.96	0.098
462.42	0.101
462.88	0.097
463.33	0.097
463.79	0.098
464.25	0.098
464.71	0.101
465.17	0.098
465.62	0.099
466.08	0.097
466.54	0.098
467.00	0.097
467.46	0.096
467.91	0.095
468.37	0.099
468.83	0.098
469.29	0.099
469.74	0.098
470.20	0.098
470.66	0.099
471.12	0.098
471.57	0.098
472.03	0.097
472.49	0.099
472.95	0.098
473.40	0.096
473.86	0.098
474.32	0.097
474.78	0.098
475.23	0.096
475.69	0.095
476.15	0.096
476.60	0.098
477.06	0.096
477.52	0.097
477.98	0.099
478.43	0.095
478.89	0.097
479.35	0.097
479.80	0.097
480.26	0.093
480.72	0.095
481.18	0.096
481.63	0.095
482.09	0.093
482.55	0.096
483.00	0.094
483.46	0.094
483.92	0.094
484.37	0.096
484.83	0.094
485.29	0.093
485.74	0.095
486.20	0.094
486.66	0.097
487.11	0.094
487.57	0.093
488.03	0.097
488.48	0.095
488.94	0.096
489.40	0.094
489.85	0.094
490.31	0.093
490.77	0.091
491.22	0.093
491.68	0.093
492.13	0.092
492.59	0.092
493.05	0.093
493.50	0.095
493.96	0.093
494.42	0.094
494.87	0.094
495.33	0.093
495.78	0.092
496.24	0.093
496.70	0.094
497.15	0.093
497.61	0.095
498.06	0.092
498.52	0.091
498.98	0.092
499.43	0.092
499.89	0.091
500.34	0.092
500.80	0.091
501.25	0.091
501.71	0.092
502.17	0.095
502.62	0.092
503.08	0.092
503.53	0.090
503.99	0.090
504.44	0.090
504.90	0.090
505.36	0.090
505.81	0.093
506.27	0.092
506.72	0.091
507.18	0.091
507.63	0.088
508.09	0.093
508.54	0.090
509.00	0.089
509.45	0.090
509.91	0.090
510.36	0.091
510.82	0.089
511.27	0.091
511.73	0.091
512.19	0.091
512.64	0.088
513.10	0.087
513.55	0.087
514.01	0.090
514.46	0.092
514.92	0.090
515.37	0.088
515.83	0.089
516.28	0.089
516.73	0.089
517.19	0.089
517.64	0.086
518.10	0.088
518.55	0.086
519.01	0.087
519.46	0.089
519.92	0.088
520.37	0.087
520.83	0.091
521.28	0.087
521.74	0.088
522.19	0.087
522.65	0.087
523.10	0.088
523.55	0.088
524.01	0.087
524.46	0.089
524.92	0.087
525.37	0.087
525.83	0.086
526.28	0.086
526.73	0.086
527.19	0.085
527.64	0.088
528.10	0.088
528.55	0.089
529.01	0.087
529.46	0.088
529.91	0.087
530.37	0.088
530.82	0.086
531.28	0.086
531.73	0.087
532.18	0.087
532.64	0.086
533.09	0.089
533.54	0.089
534.00	0.087
534.45	0.087
534.91	0.087
535.36	0.089
535.81	0.089
536.27	0.091
536.72	0.091
537.17	0.089
537.63	0.090
538.08	0.089
538.54	0.091
538.99	0.093
539.44	0.092
539.90	0.090
540.35	0.091
540.80	0.090
541.26	0.092
541.71	0.093
542.16	0.095
542.62	0.095
543.07	0.093
543.52	0.092
543.98	0.093
544.43	0.091
544.88	0.095
545.34	0.093
545.79	0.095
546.24	0.095
546.69	0.095
547.15	0.097
547.60	0.099
548.05	0.095
548.51	0.097
548.96	0.097
549.41	0.099
549.86	0.098
550.32	0.099
550.77	0.099
551.22	0.099
551.68	0.101
552.13	0.102
552.58	0.100
553.03	0.102
553.49	0.101
553.94	0.103
554.39	0.104
554.84	0.102
555.30	0.104
555.75	0.105
556.20	0.105
556.65	0.107
557.11	0.108
557.56	0.106
558.01	0.107
558.46	0.108
558.92	0.109
559.37	0.111
559.82	0.112
560.27	0.112
560.72	0.112
561.18	0.111
561.63	0.112
562.08	0.113
562.53	0.112
562.99	0.116
563.44	0.115
563.89	0.115
564.34	0.117
564.79	0.115
565.25	0.118
565.70	0.121
566.15	0.119
566.60	0.119
567.05	0.122
567.50	0.123
567.96	0.122
568.41	0.122
568.86	0.125
569.31	0.125
569.76	0.125
570.21	0.125
570.67	0.127
571.12	0.128
571.57	0.130
572.02	0.130
572.47	0.129
572.92	0.133
573.37	0.134
573.83	0.133
574.28	0.133
574.73	0.134
575.18	0.136
575.63	0.138
576.08	0.136
576.53	0.137
576.98	0.139
577.44	0.140
577.89	0.142
578.34	0.143
578.79	0.145
579.24	0.147
579.69	0.146
580.14	0.147
580.59	0.150
581.04	0.150
581.49	0.151
581.95	0.154
582.40	0.155
582.85	0.157
583.30	0.158
583.75	0.160
584.20	0.160
584.65	0.164
585.10	0.165
585.55	0.166
586.00	0.166
586.45	0.168
586.90	0.172
587.35	0.171
587.80	0.175
588.25	0.177
588.71	0.179
589.16	0.181
589.61	0.181
590.06	0.183
590.51	0.187
590.96	0.188
591.41	0.190
591.86	0.192
592.31	0.196
592.76	0.196
593.21	0.199
593.66	0.200
594.11	0.204
594.56	0.205
595.01	0.207
595.46	0.210
595.91	0.213
596.36	0.214
596.81	0.216
597.26	0.219
597.71	0.221
598.16	0.223
598.61	0.223
599.06	0.227
599.51	0.226
599.96	0.231
600.41	0.235
600.86	0.235
601.31	0.235
601.76	0.242
602.21	0.242
602.65	0.243
603.10	0.246
603.55	0.248
604.00	0.249
604.45	0.252
604.90	0.254
605.35	0.256
605.80	0.259
606.25	0.261
606.70	0.262
607.15	0.262
607.60	0.265
608.05	0.270
608.50	0.269
608.95	0.272
609.39	0.272
609.84	0.275
610.29	0.277
610.74	0.275
611.19	0.277
611.64	0.280
612.09	0.280
612.54	0.281
612.99	0.282
613.44	0.282
613.88	0.283
614.33	0.284
614.78	0.286
615.23	0.288
615.68	0.290
616.13	0.289
616.58	0.290
617.03	0.289
617.47	0.289
617.92	0.291
618.37	0.292
618.82	0.293
619.27	0.291
619.72	0.295
620.17	0.294
620.61	0.296
621.06	0.295
621.51	0.299
621.96	0.298
622.41	0.299
622.86	0.298
623.30	0.298
623.75	0.300
624.20	0.301
624.65	0.303
625.10	0.302
625.54	0.304
625.99	0.304
626.44	0.308
626.89	0.306
627.34	0.308
627.78	0.308
628.23	0.309
628.68	0.314
629.13	0.314
629.58	0.313
630.02	0.316
630.47	0.318
630.92	0.319
631.37	0.320
631.81	0.322
632.26	0.325
632.71	0.327
633.16	0.327
633.61	0.329
634.05	0.333
634.50	0.334
634.95	0.337
635.40	0.340
635.84	0.342
636.29	0.344
636.74	0.347
637.18	0.349
637.63	0.351
638.08	0.352
638.53	0.358
638.97	0.362
639.42	0.364
639.87	0.368
640.32	0.370
640.76	0.374
641.21	0.375
641.66	0.379
642.10	0.383
642.55	0.384
643.00	0.388
643.44	0.393
643.89	0.398
644.34	0.401
644.79	0.404
645.23	0.408
645.68	0.411
646.13	0.415
646.57	0.421
647.02	0.423
647.47	0.425
647.91	0.431
648.36	0.440
648.81	0.439
649.25	0.437
649.70	0.446
650.15	0.449
650.59	0.455
651.04	0.458
651.48	0.457
651.93	0.462
652.38	0.465
652.82	0.466
653.27	0.469
653.72	0.476
654.16	0.478
654.61	0.480
655.06	0.484
655.50	0.485
655.95	0.488
656.39	0.492
656.84	0.493
657.29	0.497
657.73	0.500
658.18	0.502
658.62	0.504
659.07	0.509
659.52	0.509
659.96	0.512
660.41	0.514
660.85	0.512
661.30	0.518
661.74	0.518
662.19	0.518
662.64	0.520
663.08	0.519
663.53	0.522
663.97	0.521
664.42	0.522
664.86	0.524
665.31	0.524
665.75	0.525
666.20	0.522
666.65	0.519
667.09	0.520
667.54	0.519
667.98	0.517
668.43	0.515
668.87	0.513
669.32	0.509
669.76	0.507
670.21	0.501
670.65	0.499
671.10	0.495
671.54	0.486
671.99	0.481
672.43	0.478
672.88	0.471
673.32	0.466
673.77	0.456
674.21	0.451
674.66	0.441
675.10	0.437
675.55	0.428
675.99	0.420
676.44	0.413
676.88	0.405
677.33	0.394
677.77	0.384
678.22	0.373
678.66	0.368
679.11	0.358
679.55	0.349
679.99	0.339
680.44	0.330
680.88	0.324
681.33	0.314
681.77	0.302
682.22	0.293
682.66	0.285
683.11	0.276
683.55	0.264
683.99	0.258
684.44	0.250
684.88	0.245
685.33	0.232
685.77	0.226
686.21	0.220
686.66	0.210
687.10	0.205
687.55	0.197
687.99	0.188
688.44	0.186
688.88	0.179
689.32	0.170
689.77	0.164
690.21	0.160
690.65	0.156
691.10	0.148
691.54	0.142
691.99	0.139
692.43	0.132
692.87	0.129
693.32	0.124
693.76	0.120
694.20	0.119
694.65	0.114
695.09	0.111
695.53	0.109
695.98	0.106
696.42	0.103
696.86	0.096
697.31	0.095
697.75	0.094
698.19	0.089
698.64	0.088
699.08	0.087
699.52	0.086
699.97	0.083
700.41	0.082
700.85	0.079
701.30	0.076
701.74	0.073
702.18	0.076
702.63	0.071
703.07	0.071
703.51	0.071
703.96	0.070
704.40	0.066
704.84	0.065
705.28	0.063
705.73	0.061
706.17	0.062
706.61	0.061
707.06	0.062
707.50	0.058
707.94	0.057
708.38	0.058
708.83	0.057
709.27	0.055
709.71	0.054
710.15	0.058
710.60	0.058
711.04	0.056
711.48	0.053
711.92	0.054
712.37	0.052
712.81	0.052
713.25	0.050
713.69	0.054
714.13	0.048
714.58	0.048
715.02	0.051
715.46	0.047
715.90	0.050
716.35	0.053
716.79	0.049
717.23	0.050
717.67	0.051
718.11	0.049
718.56	0.050
719.00	0.049
719.44	0.053
719.88	0.050
720.32	0.049
720.76	0.047
721.21	0.047
721.65	0.049
722.09	0.049
722.53	0.050
722.97	0.048
723.41	0.047
723.86	0.048
724.30	0.049
724.74	0.050
725.18	0.046
725.62	0.051
726.06	0.051
726.50	0.050
726.95	0.049
727.39	0.050
727.83	0.047
728.27	0.047
728.71	0.049
729.15	0.051
729.59	0.049
730.03	0.051
730.48	0.052
730.92	0.050
731.36	0.048
731.80	0.047
732.24	0.051
732.68	0.051
733.12	0.051
733.56	0.051
734.00	0.051
734.44	0.050
734.89	0.050
735.33	0.050
735.77	0.050
736.21	0.049
736.65	0.050
737.09	0.050
737.53	0.052
737.97	0.051
738.41	0.050
738.85	0.052
739.29	0.052
739.73	0.050
740.17	0.050
740.61	0.049
741.05	0.049
741.49	0.051
741.93	0.049
742.37	0.051
742.81	0.051
743.26	0.049
743.70	0.048
744.14	0.053
744.58	0.049
745.02	0.050
745.46	0.054
745.90	0.052
746.34	0.049
746.78	0.052
747.22	0.051
747.66	0.048
748.10	0.049
748.54	0.048
748.98	0.049
749.42	0.051
749.86	0.050
750.29	0.050
750.73	0.050
751.17	0.049
751.61	0.049
752.05	0.049
752.49	0.048
752.93	0.048
753.37	0.052
753.81	0.052
754.25	0.049
754.69	0.048
755.13	0.052
755.57	0.048
756.01	0.048
756.45	0.049
756.89	0.052
757.33	0.048
757.77	0.048
758.21	0.049
758.64	0.051
759.08	0.046
759.52	0.048
759.96	0.048
760.40	0.048
760.84	0.049
761.28	0.049
761.72	0.047
762.16	0.049
762.60	0.049
763.03	0.048
763.47	0.045
763.91	0.049
764.35	0.049
764.79	0.049
765.23	0.046
765.67	0.051
766.11	0.048
766.54	0.048
766.98	0.047
767.42	0.048
767.86	0.046
768.30	0.043
768.74	0.047
769.17	0.047
769.61	0.051
770.05	0.047
770.49	0.050
770.93	0.050
771.37	0.047
771.80	0.046
772.24	0.050
772.68	0.050
773.12	0.049
773.56	0.049
774.00	0.049
774.43	0.049
774.87	0.045
775.31	0.048
775.75	0.046
776.19	0.048
776.62	0.051
777.06	0.046
777.50	0.051
777.94	0.050
778.37	0.047
778.81	0.049
779.25	0.052
779.69	0.047
780.13	0.045
780.56	0.050
781.00	0.050
781.44	0.047
781.88	0.049
782.31	0.049
782.75	0.050
783.19	0.049
783.63	0.047
784.06	0.045
784.50	0.046
784.94	0.049
785.37	0.048
785.81	0.049
786.25	0.046
786.69	0.050
787.12	0.048
787.56	0.047
788.00	0.049
788.43	0.049
788.87	0.047
789.31	0.047
789.75	0.054
790.18	0.048
790.62	0.049
791.06	0.043
791.49	0.049
791.93	0.050
792.37	0.043
792.80	0.048
793.24	0.049
793.68	0.045
794.11	0.049
794.55	0.046
794.99	0.047
795.42	0.044
795.86	0.050
796.30	0.048
796.73	0.050
797.17	0.046
797.61	0.046
798.04	0.048
798.48	0.046
798.91	0.045
799.35	0.047
799.79	0.044
800.22	0.043
800.66	0.044
801.10	0.046
801.53	0.052
801.97	0.048
802.40	0.046
802.84	0.049
803.28	0.042
803.71	0.045
804.15	0.046
804.58	0.048
805.02	0.045
805.46	0.046
805.89	0.049
806.33	0.044
806.76	0.046
807.20	0.045
807.63	0.046
808.07	0.043
808.51	0.043
808.94	0.043
809.38	0.047
809.81	0.042
810.25	0.045
810.68	0.049
811.12	0.043
811.55	0.043
811.99	0.048
812.42	0.045
812.86	0.046
813.29	0.048
813.73	0.047
814.17	0.046
814.60	0.044
815.04	0.048
815.47	0.042
815.91	0.045
816.34	0.046
816.78	0.045
817.21	0.046
817.65	0.044
818.08	0.048
818.52	0.052
818.95	0.050
819.39	0.046
819.82	0.047
820.25	0.045
820.69	0.046
821.12	0.043
821.56	0.047
821.99	0.048
822.43	0.047
822.86	0.044
823.30	0.042
823.73	0.045
824.17	0.039
824.60	0.048
825.04	0.048
825.47	0.048
825.90	0.044
826.34	0.046
826.77	0.048
827.21	0.047
827.64	0.046
828.08	0.050
828.51	0.045
828.94	0.044
829.38	0.047
829.81	0.051
830.25	0.049
830.68	0.049
831.11	0.053
831.55	0.056
831.98	0.046
832.42	0.049
832.85	0.056
833.28	0.045
833.72	0.049
834.15	0.058
834.58	0.056
835.02	0.052
835.45	0.049
835.88	0.053
836.32	0.057
836.75	0.044
837.19	0.056
837.62	0.057
838.05	0.057
838.49	0.053
838.92	0.057
839.35	0.058
839.79	0.049
840.22	0.049
840.65	0.056
841.09	0.053
841.52	0.052
841.95	0.053
842.39	0.048
842.82	0.054
843.25	0.053
843.68	0.061
844.12	0.056
844.55	0.049
844.98	0.056
845.42	0.059
845.85	0.052
846.28	0.051
846.71	0.056
847.15	0.061
847.58	0.053
848.01	0.053
848.45	0.060
848.88	0.056
849.31	0.055
849.74	0.051
850.18	0.057
850.61	0.053
851.04	0.056
851.47	0.059
851.91	0.058
852.34	0.054
852.77	0.058
853.20	0.062
853.64	0.052
854.07	0.051
854.50	0.053
854.93	0.064
855.36	0.050
855.80	0.054
856.23	0.062
856.66	0.060
857.09	0.055
857.52	0.056
857.96	0.060
858.39	0.057
858.82	0.057
859.25	0.058
859.68	0.056
860.12	0.054
860.55	0.056
860.98	0.062
861.41	0.053
861.84	0.055
862.27	0.054
862.71	0.062
863.14	0.052
863.57	0.058
864.00	0.064
864.43	0.064
864.86	0.057
865.30	0.058
865.73	0.065
866.16	0.064
866.59	0.049
867.02	0.059
867.45	0.057
867.88	0.058
868.31	0.054
868.75	0.064
869.18	0.065
869.61	0.063
870.04	0.057
870.47	0.058
870.90	0.067
871.33	0.057
871.76	0.064
872.19	0.064
872.62	0.057
873.06	0.055
873.49	0.066
873.92	0.059
874.35	0.056
874.78	0.059
875.21	0.063
875.64	0.050
876.07	0.058
876.50	0.070
876.93	0.071
877.36	0.063
877.79	0.066
878.22	0.070
878.65	0.066
879.08	0.063
879.51	0.062
879.94	0.067
880.37	0.064
880.80	0.062
881.23	0.064
881.67	0.063
882.10	0.058
882.53	0.061
882.96	0.068
883.39	0.065
883.82	0.062
884.25	0.064
884.68	0.071
885.11	0.065
885.54	0.066
885.97	0.066
886.39	0.067
886.82	0.072
887.25	0.061
887.68	0.070
888.11	0.069
888.54	0.068
888.97	0.067
889.40	0.065
889.83	0.070
890.26	0.068
890.69	0.073
891.12	0.073
891.55	0.071
891.98	0.065
892.41	0.071
892.84	0.069
893.27	0.066
893.70	0.069
894.13	0.075
894.56	0.064
894.98	0.073
895.41	0.072
895.84	0.071
896.27	0.068
896.70	0.073
897.13	0.071
897.56	0.071
897.99	0.069
898.42	0.076
898.85	0.073
899.27	0.064
899.70	0.068
900.13	0.071
900.56	0.074
900.99	0.070
901.42	0.078
901.85	0.075
902.28	0.072
902.70	0.069
903.13	0.071
903.56	0.073
903.99	0.067
904.42	0.066
904.85	0.070
905.27	0.073
905.70	0.070
906.13	0.075
906.56	0.073
906.99	0.074
907.42	0.074
907.84	0.074
908.27	0.072
908.70	0.073
909.13	0.076
909.56	0.079
909.98	0.067
910.41	0.074
910.84	0.074
911.27	0.077
911.70	0.078
912.12	0.072
912.55	0.073
912.98	0.072
913.41	0.070
913.84	0.073
914.26	0.077
914.69	0.070
915.12	0.074
915.55	0.070
915.97	0.073
916.40	0.073
916.83	0.071
917.26	0.077
917.68	0.076
918.11	0.070
918.54	0.075
918.97	0.078
919.39	0.076
919.82	0.075
920.25	0.074
920.67	0.076
921.10	0.076
921.53	0.076
921.96	0.076
922.38	0.078
922.81	0.077
923.24	0.078
923.66	0.082
924.09	0.074
924.52	0.081
924.94	0.081
925.37	0.084
925.80	0.076
926.22	0.082
926.65	0.083
927.08	0.084
927.50	0.088
927.93	0.089
928.36	0.085
928.78	0.084
929.21	0.088
929.64	0.090
930.06	0.087
930.49	0.084
930.92	0.083
931.34	0.092
931.77	0.092
932.20	0.088
932.62	0.087
933.05	0.096
933.47	0.094
933.90	0.096
934.33	0.099
934.75	0.101
935.18	0.098
935.61	0.099
936.03	0.107
936.46	0.102
936.88	0.105
937.31	0.108
937.73	0.111
938.16	0.110
938.59	0.109
939.01	0.111
939.44	0.111
939.86	0.107
940.29	0.116
940.71	0.123
941.14	0.118
941.57	0.123
941.99	0.130
942.42	0.125
942.84	0.128
943.27	0.135
943.69	0.139
944.12	0.137
944.54	0.138
944.97	0.145
945.39	0.147
945.82	0.142
946.24	0.149
946.67	0.154
947.09	0.152
947.52	0.151
947.94	0.160
948.37	0.158
948.79	0.161
949.22	0.155
949.64	0.159
950.07	0.156
950.49	0.168
950.92	0.171
951.34	0.170
951.77	0.175
952.19	0.172
952.62	0.182
953.04	0.189
953.47	0.184
953.89	0.188
954.32	0.193
954.74	0.199
955.17	0.194
955.59	0.205
956.01	0.210
956.44	0.211
956.86	0.203
957.29	0.218
957.71	0.220
958.14	0.209
958.56	0.216
958.98	0.217
959.41	0.220
959.83	0.216
960.26	0.221
960.68	0.232
961.10	0.232
961.53	0.226
961.95	0.227
962.38	0.231
962.80	0.233
963.22	0.235
963.65	0.236
964.07	0.230
964.50	0.230
964.92	0.235
965.34	0.249
965.77	0.241
966.19	0.230
966.61	0.246
967.04	0.239
967.46	0.242
967.88	0.242
968.31	0.241
968.73	0.241
969.15	0.240
969.58	0.241
970.00	0.244
970.42	0.242
970.85	0.236
971.27	0.245
971.69	0.250
972.12	0.245
972.54	0.248
972.96	0.252
973.39	0.251
973.81	0.243
974.23	0.250
974.65	0.249
975.08	0.242
975.50	0.239
975.92	0.249
976.35	0.240
976.77	0.242
977.19	0.246
977.61	0.248
978.04	0.241
978.46	0.239
978.88	0.246
979.30	0.260
979.73	0.247
980.15	0.238
980.57	0.246
980.99	0.248
981.42	0.241
981.84	0.248
982.26	0.249
982.68	0.248
983.11	0.241
983.53	0.253
983.95	0.243
984.37	0.243
984.79	0.242
985.22	0.241
985.64	0.241
986.06	0.238
986.48	0.242
986.90	0.246
987.33	0.243
987.75	0.246
988.17	0.236
988.59	0.247
989.01	0.243
989.43	0.235
989.86	0.237
990.28	0.236
990.70	0.234
991.12	0.231
991.54	0.234
991.96	0.230
992.39	0.234
992.81	0.239
993.23	0.232
993.65	0.231
994.07	0.231
994.49	0.238
994.91	0.226
995.34	0.216
995.76	0.231
996.18	0.230
996.60	0.227
997.02	0.229
997.44	0.228
997.86	0.227
998.28	0.219
998.70	0.229
999.12	0.232
999.55	0.212
999.97	0.219
1000.39	0.229
1000.81	0.225
1001.23	0.219
1001.65	0.223
1002.07	0.215
1002.49	0.215
1002.91	0.213
1003.33	0.209
1003.75	0.222
1004.17	0.210
1004.59	0.208
1005.01	0.213
1005.43	0.213
1005.85	0.208
1006.28	0.213
1006.70	0.210
1007.12	0.201
1007.54	0.207
1007.96	0.216
1008.38	0.212
1008.80	0.197
1009.22	0.203
1009.64	0.199
1010.06	0.204
1010.48	0.200
1010.90	0.191
1011.32	0.200
1011.74	0.201
1012.16	0.189
1012.58	0.192
1013.00	0.195
1013.42	0.181
1013.84	0.183
1014.26	0.187
1014.67	0.200
1015.09	0.183
1015.51	0.183
1015.93	0.190
1016.35	0.195
1016.77	0.187
1017.19	0.175
1017.61	0.193
1018.03	0.171
1018.45	0.188
1018.87	0.185
1019.29	0.185
1019.71	0.172
1020.13	0.184
1020.55	0.184
1020.97	0.163
1021.38	0.179
1021.80	0.182
1022.22	0.178
1022.64	0.173
1023.06	0.167
1023.48	0.169
1023.90	0.164
1024.32	0.162
1024.74	0.163
1025.15	0.165
1025.57	0.158
1025.99	0.168
1026.41	0.166
1026.83	0.164
1027.25	0.157
1027.67	0.160
1028.08	0.172
1028.50	0.153
1028.92	0.142
1029.34	0.145
1029.76	0.163
1030.18	0.154
1030.60	0.146
1031.01	0.158
1031.43	0.149
1031.85	0.151
1032.27	0.151
1032.69	0.158
1033.10	0.141
1033.52	0.137
1033.94	0.151
1034.36	0.139
1034.78	0.135
1035.19	0.125
1035.61	0.155
1036.03	0.137
1036.45	0.128
1036.87	0.140
1037.28	0.134
1037.70	0.117
1038.12	0.118
1038.54	0.136
1038.95	0.135
1039.37	0.133
1039.79	0.134
1040.21	0.127
1040.62	0.139
1041.04	0.115
1041.46	0.138
1041.88	0.148
1042.29	0.118
1042.71	0.111
1043.13	0.144
1043.55	0.127
1043.96	0.104
1044.38	0.130
1044.80	0.133
1045.21	0.133
1045.63	0.100
1046.05	0.119
1046.47	0.138
1046.88	0.107
1047.30	0.108
1047.72	0.134
1048.13	0.115
1048.55	0.114
1048.97	0.108
1049.38	0.119
1049.80	0.115
1050.22	0.126
1050.63	0.118
1051.05	0.139
1051.47	0.127
1051.88	0.118
1052.30	0.128
1052.72	0.105
1053.13	0.115
1053.55	0.128
1053.97	0.138
1054.38	0.111
1054.80	0.076
1055.21	0.109
1055.63	0.130
1056.05	0.124
1056.46	0.077
1056.88	0.174
1057.29	0.100
1057.71	0.108
1058.13	0.156
1058.54	0.113
1058.96	0.106
1059.37	0.138
1059.79	0.101
1060.21	0.152
1060.62	0.097
1061.04	0.092
1061.45	0.165
1061.87	0.104
1062.28	0.102
1062.70	0.130
1063.12	0.153
1063.53	0.093
1063.95	0.084
1064.36	0.140
1064.78	0.163
1065.19	0.098
1065.61	0.113
1066.02	0.177
1066.44	0.154
1066.85	0.116
1067.27	0.234
1067.68	0.118
1068.10	0.044
1068.51	0.125
1068.93	0.132
1069.35	0.182
1069.76	0.148
1070.17	0.146
1070.59	0.319
1071.00	0.170
1071.42	0.154
1071.83	0.271
1072.25	0.161
1072.66	0.163
1073.08	0.201
1073.49	0.205
1073.91	0.151
1074.32	0.018
1074.74	0.063
1075.15	0.421
1075.57	0.186
1075.98	0.094
1076.40	0.262
1076.81	0.194
1077.22	0.019
1077.64	0.187
1078.05	0.581
1078.47	0.204
1078.88	0.042
1079.30	0.186
1079.71	0.443
1080.12	0.195
1080.54	0.123
1080.95	0.325
1081.37	0.125
1081.78	0.232
1082.19	0.185
1082.61	0.252
1083.02	0.126
1083.44	0.135
1083.85	0.148
1084.26	0.223
1084.68	0.048
1085.09	0.224
1085.50	0.424
1085.92	0.377
1086.33	-0.015
1086.74	0.645
1087.16	0.826
1087.57	0.246
1087.98	0.188
1088.40	0.159
1088.81	0.443
1089.22	-0.131
1089.64	0.338
1090.05	-0.000
1090.46	0.051
1090.88	-0.021
1091.29	0.236
1091.70	0.560
1092.12	0.316
1092.53	0.554
1092.94	0.704
1093.36	0.857
1093.77	0.628
1094.18	0.554
1094.59	0.158
1095.01	0.200
1095.42	-0.171
1095.83	0.519
1096.25	0.638
1096.66	-0.062
1097.07	0.262
1097.48	0.452
1097.90	0.291
1098.31	0.452
1098.72	0.131
1099.13	0.415
>>>>>End Processed Spectral Data<<<<<
