SpectraSuite Data File
++++++++++++++++++++++++++++++++++++
Date: Tue Jul 11 13:30:29 CEST 2017
User: IPCE
Dark Spectrum Present: Yes
Reference Spectrum Present: Yes
Number of Sampled Component Spectra: 1
Spectrometers: HR+C0708
Integration Time (usec): 1000 (HR+C0708)
Spectra Averaged: 10 (HR+C0708)
Boxcar Smoothing: 0 (HR+C0708)
Correct for Electrical Dark: No (HR+C0708)
Strobe/Lamp Enabled: No (HR+C0708)
Correct for Detector Non-linearity: No (HR+C0708)
Correct for Stray Light: No (HR+C0708)
Number of Pixels in Processed Spectrum: 2048
>>>>>Begin Processed Spectral Data<<<<<
188.76	0.514
189.23	0.344
189.70	0.327
190.17	-0.087
190.64	0.195
191.12	0.208
191.59	0.215
192.06	0.534
192.53	0.074
193.01	0.612
193.48	0.954
193.95	0.149
194.42	-0.008
194.90	0.357
195.37	-0.106
195.84	0.560
196.31	0.512
196.78	0.383
197.26	0.318
197.73	0.348
198.20	-0.030
198.67	-0.000
199.14	-0.210
199.62	-0.459
200.09	0.420
200.56	0.220
201.03	0.367
201.50	0.416
201.97	0.476
202.45	0.515
202.92	0.283
203.39	0.406
203.86	0.417
204.33	0.305
204.80	0.378
205.28	0.601
205.75	0.462
206.22	0.325
206.69	0.369
207.16	0.213
207.63	0.469
208.11	0.209
208.58	0.416
209.05	0.557
209.52	0.342
209.99	0.390
210.46	0.454
210.93	0.488
211.41	0.463
211.88	0.441
212.35	0.314
212.82	0.523
213.29	0.489
213.76	0.361
214.23	0.530
214.70	0.537
215.18	0.475
215.65	0.805
216.12	0.676
216.59	0.460
217.06	0.867
217.53	0.301
218.00	0.319
218.47	0.467
218.94	0.472
219.41	0.620
219.89	0.376
220.36	0.413
220.83	0.548
221.30	0.675
221.77	0.436
222.24	1.019
222.71	0.454
223.18	0.616
223.65	0.618
224.12	0.767
224.59	0.565
225.06	0.636
225.54	0.557
226.01	0.716
226.48	0.612
226.95	0.740
227.42	1.034
227.89	0.908
228.36	1.071
228.83	0.997
229.30	1.069
229.77	1.187
230.24	1.217
230.71	1.169
231.18	1.258
231.65	1.227
232.12	1.252
232.59	1.645
233.06	1.353
233.53	1.589
234.00	1.418
234.47	1.632
234.94	1.736
235.41	1.674
235.88	1.739
236.35	1.939
236.82	1.869
237.29	1.971
237.76	1.958
238.23	1.867
238.70	1.915
239.17	2.209
239.64	2.351
240.11	2.333
240.58	2.033
241.05	2.165
241.52	2.180
241.99	2.127
242.46	2.161
242.93	2.492
243.40	2.221
243.87	2.323
244.34	2.293
244.81	2.260
245.28	2.361
245.75	2.284
246.22	2.048
246.69	2.248
247.16	2.552
247.63	2.577
248.10	2.513
248.57	2.157
249.04	2.382
249.51	2.615
249.98	2.363
250.45	2.375
250.92	2.384
251.39	2.543
251.85	2.489
252.32	2.541
252.79	2.301
253.26	2.608
253.73	2.764
254.20	2.590
254.67	2.636
255.14	2.370
255.61	2.975
256.08	2.679
256.55	2.494
257.02	2.603
257.49	2.575
257.95	2.572
258.42	2.686
258.89	2.463
259.36	2.536
259.83	2.707
260.30	2.557
260.77	2.708
261.24	2.613
261.71	2.618
262.17	2.587
262.64	2.627
263.11	2.704
263.58	2.610
264.05	2.634
264.52	2.652
264.99	2.849
265.46	2.541
265.92	2.777
266.39	2.643
266.86	2.627
267.33	2.535
267.80	2.675
268.27	2.546
268.74	2.637
269.20	2.628
269.67	2.546
270.14	2.770
270.61	2.483
271.08	2.602
271.55	2.542
272.01	2.510
272.48	2.699
272.95	2.605
273.42	2.585
273.89	2.596
274.36	2.484
274.82	2.645
275.29	2.605
275.76	2.505
276.23	2.509
276.70	2.501
277.16	2.472
277.63	2.702
278.10	2.538
278.57	2.510
279.04	2.520
279.50	2.483
279.97	2.481
280.44	2.705
280.91	2.427
281.38	2.460
281.84	2.583
282.31	2.543
282.78	2.604
283.25	2.642
283.72	2.438
284.18	2.558
284.65	2.615
285.12	2.528
285.59	2.593
286.05	2.515
286.52	2.618
286.99	2.623
287.46	2.521
287.92	2.564
288.39	2.531
288.86	2.534
289.33	2.467
289.79	2.527
290.26	2.599
290.73	2.621
291.20	2.573
291.66	2.650
292.13	2.538
292.60	2.436
293.07	2.716
293.53	2.458
294.00	2.448
294.47	2.485
294.93	2.578
295.40	2.486
295.87	2.629
296.34	2.427
296.80	2.562
297.27	2.517
297.74	2.357
298.20	2.556
298.67	2.519
299.14	2.487
299.60	2.544
300.07	2.418
300.54	2.358
301.01	2.516
301.47	2.370
301.94	2.432
302.41	2.405
302.87	2.391
303.34	2.552
303.81	2.302
304.27	2.322
304.74	2.462
305.21	2.352
305.67	2.508
306.14	2.441
306.61	2.370
307.07	2.278
307.54	2.392
308.01	2.335
308.47	2.378
308.94	2.384
309.40	2.345
309.87	2.367
310.34	2.291
310.80	2.343
311.27	2.355
311.74	2.434
312.20	2.241
312.67	2.366
313.13	2.338
313.60	2.339
314.07	2.358
314.53	2.254
315.00	2.433
315.47	2.318
315.93	2.290
316.40	2.402
316.86	2.389
317.33	2.279
317.80	2.344
318.26	2.226
318.73	2.238
319.19	2.308
319.66	2.260
320.13	2.293
320.59	2.194
321.06	2.262
321.52	2.251
321.99	2.166
322.45	2.172
322.92	2.175
323.39	2.134
323.85	2.087
324.32	2.104
324.78	2.110
325.25	2.136
325.71	2.075
326.18	2.102
326.64	2.138
327.11	2.121
327.58	2.042
328.04	2.072
328.51	2.035
328.97	2.057
329.44	2.100
329.90	2.063
330.37	2.102
330.83	1.989
331.30	2.032
331.76	2.094
332.23	2.070
332.69	2.032
333.16	2.096
333.62	2.072
334.09	2.095
334.56	2.135
335.02	2.049
335.49	2.150
335.95	2.046
336.42	2.050
336.88	2.076
337.35	2.099
337.81	2.057
338.28	2.057
338.74	2.075
339.20	2.054
339.67	2.042
340.13	2.084
340.60	2.102
341.06	2.054
341.53	2.041
341.99	2.053
342.46	2.082
342.92	2.021
343.39	2.073
343.85	1.993
344.32	2.024
344.78	1.981
345.25	1.951
345.71	1.945
346.17	1.911
346.64	1.881
347.10	1.877
347.57	1.844
348.03	1.803
348.50	1.778
348.96	1.716
349.43	1.665
349.89	1.679
350.35	1.605
350.82	1.588
351.28	1.507
351.75	1.477
352.21	1.429
352.67	1.349
353.14	1.301
353.60	1.235
354.07	1.181
354.53	1.094
355.00	1.028
355.46	0.945
355.92	0.856
356.39	0.775
356.85	0.695
357.31	0.624
357.78	0.548
358.24	0.477
358.71	0.422
359.17	0.369
359.63	0.320
360.10	0.279
360.56	0.236
361.03	0.206
361.49	0.179
361.95	0.158
362.42	0.141
362.88	0.125
363.34	0.116
363.81	0.104
364.27	0.095
364.73	0.089
365.20	0.087
365.66	0.081
366.12	0.078
366.59	0.071
367.05	0.072
367.51	0.068
367.98	0.067
368.44	0.065
368.90	0.064
369.37	0.062
369.83	0.061
370.29	0.062
370.76	0.057
371.22	0.057
371.68	0.060
372.15	0.057
372.61	0.057
373.07	0.059
373.54	0.057
374.00	0.060
374.46	0.056
374.92	0.059
375.39	0.057
375.85	0.055
376.31	0.054
376.78	0.056
377.24	0.054
377.70	0.056
378.16	0.054
378.63	0.055
379.09	0.052
379.55	0.053
380.01	0.052
380.48	0.055
380.94	0.056
381.40	0.053
381.87	0.055
382.33	0.052
382.79	0.055
383.25	0.052
383.72	0.053
384.18	0.052
384.64	0.051
385.10	0.050
385.56	0.054
386.03	0.053
386.49	0.054
386.95	0.051
387.41	0.052
387.88	0.050
388.34	0.052
388.80	0.053
389.26	0.051
389.72	0.052
390.19	0.054
390.65	0.052
391.11	0.052
391.57	0.053
392.04	0.049
392.50	0.051
392.96	0.052
393.42	0.053
393.88	0.051
394.34	0.053
394.81	0.050
395.27	0.049
395.73	0.052
396.19	0.049
396.65	0.051
397.12	0.048
397.58	0.048
398.04	0.051
398.50	0.048
398.96	0.051
399.42	0.051
399.89	0.050
400.35	0.047
400.81	0.049
401.27	0.046
401.73	0.048
402.19	0.049
402.65	0.047
403.12	0.046
403.58	0.043
404.04	0.044
404.50	0.045
404.96	0.045
405.42	0.043
405.88	0.045
406.34	0.045
406.81	0.045
407.27	0.044
407.73	0.046
408.19	0.043
408.65	0.044
409.11	0.042
409.57	0.044
410.03	0.042
410.49	0.040
410.96	0.039
411.42	0.042
411.88	0.040
412.34	0.043
412.80	0.042
413.26	0.041
413.72	0.041
414.18	0.039
414.64	0.038
415.10	0.041
415.56	0.038
416.02	0.038
416.48	0.040
416.95	0.039
417.41	0.039
417.87	0.038
418.33	0.040
418.79	0.039
419.25	0.038
419.71	0.041
420.17	0.041
420.63	0.037
421.09	0.039
421.55	0.036
422.01	0.036
422.47	0.042
422.93	0.040
423.39	0.040
423.85	0.040
424.31	0.039
424.77	0.038
425.23	0.039
425.69	0.035
426.15	0.036
426.61	0.039
427.07	0.037
427.53	0.039
427.99	0.039
428.45	0.036
428.91	0.038
429.37	0.037
429.83	0.037
430.29	0.039
430.75	0.040
431.21	0.037
431.67	0.039
432.13	0.035
432.59	0.038
433.05	0.038
433.51	0.041
433.97	0.039
434.43	0.039
434.89	0.039
435.35	0.037
435.81	0.033
436.27	0.036
436.73	0.038
437.19	0.037
437.65	0.037
438.11	0.038
438.57	0.036
439.03	0.035
439.48	0.033
439.94	0.036
440.40	0.035
440.86	0.034
441.32	0.035
441.78	0.035
442.24	0.035
442.70	0.037
443.16	0.036
443.62	0.040
444.08	0.035
444.54	0.036
444.99	0.035
445.45	0.039
445.91	0.034
446.37	0.034
446.83	0.036
447.29	0.035
447.75	0.036
448.21	0.036
448.67	0.033
449.12	0.037
449.58	0.035
450.04	0.037
450.50	0.036
450.96	0.035
451.42	0.035
451.88	0.036
452.34	0.036
452.79	0.033
453.25	0.038
453.71	0.035
454.17	0.034
454.63	0.033
455.09	0.036
455.55	0.038
456.00	0.036
456.46	0.035
456.92	0.034
457.38	0.036
457.84	0.035
458.30	0.037
458.75	0.037
459.21	0.036
459.67	0.035
460.13	0.035
460.59	0.036
461.04	0.034
461.50	0.036
461.96	0.036
462.42	0.036
462.88	0.037
463.33	0.036
463.79	0.038
464.25	0.035
464.71	0.036
465.17	0.035
465.62	0.036
466.08	0.034
466.54	0.036
467.00	0.040
467.46	0.035
467.91	0.035
468.37	0.038
468.83	0.037
469.29	0.038
469.74	0.037
470.20	0.038
470.66	0.039
471.12	0.039
471.57	0.037
472.03	0.037
472.49	0.039
472.95	0.038
473.40	0.037
473.86	0.040
474.32	0.040
474.78	0.040
475.23	0.039
475.69	0.039
476.15	0.038
476.60	0.039
477.06	0.040
477.52	0.042
477.98	0.040
478.43	0.040
478.89	0.039
479.35	0.038
479.80	0.039
480.26	0.038
480.72	0.039
481.18	0.041
481.63	0.041
482.09	0.038
482.55	0.043
483.00	0.042
483.46	0.042
483.92	0.038
484.37	0.042
484.83	0.039
485.29	0.040
485.74	0.040
486.20	0.042
486.66	0.041
487.11	0.039
487.57	0.041
488.03	0.044
488.48	0.041
488.94	0.044
489.40	0.042
489.85	0.043
490.31	0.040
490.77	0.039
491.22	0.043
491.68	0.040
492.13	0.041
492.59	0.041
493.05	0.041
493.50	0.044
493.96	0.042
494.42	0.041
494.87	0.043
495.33	0.041
495.78	0.044
496.24	0.043
496.70	0.043
497.15	0.043
497.61	0.045
498.06	0.042
498.52	0.043
498.98	0.043
499.43	0.042
499.89	0.042
500.34	0.044
500.80	0.044
501.25	0.045
501.71	0.042
502.17	0.044
502.62	0.042
503.08	0.043
503.53	0.042
503.99	0.042
504.44	0.044
504.90	0.043
505.36	0.042
505.81	0.043
506.27	0.043
506.72	0.044
507.18	0.043
507.63	0.042
508.09	0.044
508.54	0.043
509.00	0.042
509.45	0.042
509.91	0.043
510.36	0.041
510.82	0.043
511.27	0.044
511.73	0.044
512.19	0.043
512.64	0.043
513.10	0.041
513.55	0.042
514.01	0.041
514.46	0.043
514.92	0.042
515.37	0.043
515.83	0.044
516.28	0.044
516.73	0.044
517.19	0.042
517.64	0.042
518.10	0.043
518.55	0.041
519.01	0.041
519.46	0.044
519.92	0.041
520.37	0.043
520.83	0.044
521.28	0.042
521.74	0.041
522.19	0.042
522.65	0.041
523.10	0.044
523.55	0.042
524.01	0.041
524.46	0.045
524.92	0.041
525.37	0.042
525.83	0.042
526.28	0.042
526.73	0.044
527.19	0.044
527.64	0.043
528.10	0.044
528.55	0.046
529.01	0.045
529.46	0.044
529.91	0.044
530.37	0.046
530.82	0.046
531.28	0.044
531.73	0.044
532.18	0.047
532.64	0.045
533.09	0.047
533.54	0.048
534.00	0.047
534.45	0.046
534.91	0.048
535.36	0.048
535.81	0.049
536.27	0.049
536.72	0.051
537.17	0.049
537.63	0.050
538.08	0.050
538.54	0.051
538.99	0.053
539.44	0.052
539.90	0.052
540.35	0.051
540.80	0.054
541.26	0.053
541.71	0.055
542.16	0.054
542.62	0.057
543.07	0.056
543.52	0.054
543.98	0.053
544.43	0.057
544.88	0.057
545.34	0.059
545.79	0.057
546.24	0.059
546.69	0.060
547.15	0.062
547.60	0.063
548.05	0.061
548.51	0.062
548.96	0.061
549.41	0.064
549.86	0.064
550.32	0.066
550.77	0.065
551.22	0.066
551.68	0.067
552.13	0.068
552.58	0.069
553.03	0.071
553.49	0.069
553.94	0.071
554.39	0.074
554.84	0.073
555.30	0.073
555.75	0.075
556.20	0.076
556.65	0.075
557.11	0.080
557.56	0.075
558.01	0.078
558.46	0.078
558.92	0.080
559.37	0.082
559.82	0.082
560.27	0.083
560.72	0.084
561.18	0.085
561.63	0.085
562.08	0.086
562.53	0.087
562.99	0.090
563.44	0.090
563.89	0.089
564.34	0.091
564.79	0.091
565.25	0.093
565.70	0.096
566.15	0.098
566.60	0.097
567.05	0.098
567.50	0.099
567.96	0.098
568.41	0.100
568.86	0.101
569.31	0.103
569.76	0.102
570.21	0.104
570.67	0.107
571.12	0.107
571.57	0.109
572.02	0.110
572.47	0.110
572.92	0.113
573.37	0.114
573.83	0.115
574.28	0.113
574.73	0.117
575.18	0.118
575.63	0.120
576.08	0.120
576.53	0.121
576.98	0.124
577.44	0.127
577.89	0.127
578.34	0.130
578.79	0.129
579.24	0.134
579.69	0.133
580.14	0.134
580.59	0.138
581.04	0.138
581.49	0.139
581.95	0.143
582.40	0.145
582.85	0.146
583.30	0.149
583.75	0.151
584.20	0.152
584.65	0.155
585.10	0.157
585.55	0.159
586.00	0.161
586.45	0.163
586.90	0.167
587.35	0.168
587.80	0.172
588.25	0.175
588.71	0.178
589.16	0.179
589.61	0.183
590.06	0.185
590.51	0.188
590.96	0.189
591.41	0.192
591.86	0.194
592.31	0.199
592.76	0.200
593.21	0.205
593.66	0.205
594.11	0.212
594.56	0.214
595.01	0.218
595.46	0.221
595.91	0.226
596.36	0.227
596.81	0.229
597.26	0.232
597.71	0.235
598.16	0.238
598.61	0.241
599.06	0.243
599.51	0.248
599.96	0.251
600.41	0.255
600.86	0.255
601.31	0.259
601.76	0.265
602.21	0.265
602.65	0.268
603.10	0.273
603.55	0.273
604.00	0.278
604.45	0.281
604.90	0.284
605.35	0.287
605.80	0.291
606.25	0.292
606.70	0.296
607.15	0.298
607.60	0.299
608.05	0.304
608.50	0.304
608.95	0.307
609.39	0.310
609.84	0.314
610.29	0.313
610.74	0.312
611.19	0.315
611.64	0.319
612.09	0.319
612.54	0.320
612.99	0.321
613.44	0.323
613.88	0.324
614.33	0.326
614.78	0.327
615.23	0.329
615.68	0.330
616.13	0.331
616.58	0.332
617.03	0.331
617.47	0.333
617.92	0.332
618.37	0.335
618.82	0.334
619.27	0.337
619.72	0.337
620.17	0.338
620.61	0.337
621.06	0.338
621.51	0.343
621.96	0.341
622.41	0.341
622.86	0.342
623.30	0.339
623.75	0.343
624.20	0.343
624.65	0.346
625.10	0.347
625.54	0.347
625.99	0.349
626.44	0.350
626.89	0.351
627.34	0.353
627.78	0.352
628.23	0.356
628.68	0.356
629.13	0.355
629.58	0.361
630.02	0.363
630.47	0.366
630.92	0.366
631.37	0.368
631.81	0.372
632.26	0.373
632.71	0.377
633.16	0.379
633.61	0.380
634.05	0.385
634.50	0.386
634.95	0.390
635.40	0.396
635.84	0.394
636.29	0.401
636.74	0.403
637.18	0.410
637.63	0.412
638.08	0.414
638.53	0.421
638.97	0.424
639.42	0.431
639.87	0.433
640.32	0.438
640.76	0.444
641.21	0.446
641.66	0.449
642.10	0.456
642.55	0.460
643.00	0.463
643.44	0.467
643.89	0.472
644.34	0.479
644.79	0.486
645.23	0.491
645.68	0.495
646.13	0.499
646.57	0.504
647.02	0.513
647.47	0.517
647.91	0.525
648.36	0.527
648.81	0.534
649.25	0.540
649.70	0.544
650.15	0.548
650.59	0.556
651.04	0.559
651.48	0.563
651.93	0.568
652.38	0.575
652.82	0.577
653.27	0.582
653.72	0.591
654.16	0.592
654.61	0.599
655.06	0.601
655.50	0.606
655.95	0.609
656.39	0.614
656.84	0.619
657.29	0.620
657.73	0.624
658.18	0.634
658.62	0.636
659.07	0.641
659.52	0.644
659.96	0.647
660.41	0.648
660.85	0.651
661.30	0.655
661.74	0.660
662.19	0.658
662.64	0.661
663.08	0.667
663.53	0.667
663.97	0.669
664.42	0.671
664.86	0.670
665.31	0.670
665.75	0.674
666.20	0.673
666.65	0.670
667.09	0.670
667.54	0.669
667.98	0.668
668.43	0.662
668.87	0.659
669.32	0.660
669.76	0.654
670.21	0.649
670.65	0.642
671.10	0.641
671.54	0.630
671.99	0.624
672.43	0.617
672.88	0.607
673.32	0.600
673.77	0.590
674.21	0.580
674.66	0.568
675.10	0.562
675.55	0.548
675.99	0.539
676.44	0.527
676.88	0.516
677.33	0.503
677.77	0.490
678.22	0.476
678.66	0.467
679.11	0.453
679.55	0.438
679.99	0.427
680.44	0.414
680.88	0.398
681.33	0.387
681.77	0.374
682.22	0.359
682.66	0.348
683.11	0.338
683.55	0.325
683.99	0.312
684.44	0.301
684.88	0.293
685.33	0.280
685.77	0.267
686.21	0.260
686.66	0.248
687.10	0.237
687.55	0.229
687.99	0.218
688.44	0.211
688.88	0.203
689.32	0.192
689.77	0.185
690.21	0.175
690.65	0.171
691.10	0.161
691.54	0.153
691.99	0.146
692.43	0.143
692.87	0.135
693.32	0.131
693.76	0.125
694.20	0.120
694.65	0.114
695.09	0.110
695.53	0.104
695.98	0.101
696.42	0.097
696.86	0.091
697.31	0.086
697.75	0.086
698.19	0.081
698.64	0.079
699.08	0.078
699.52	0.074
699.97	0.069
700.41	0.070
700.85	0.067
701.30	0.063
701.74	0.058
702.18	0.058
702.63	0.057
703.07	0.054
703.51	0.054
703.96	0.052
704.40	0.049
704.84	0.046
705.28	0.045
705.73	0.046
706.17	0.045
706.61	0.042
707.06	0.041
707.50	0.039
707.94	0.037
708.38	0.040
708.83	0.038
709.27	0.039
709.71	0.035
710.15	0.033
710.60	0.036
711.04	0.033
711.48	0.032
711.92	0.036
712.37	0.029
712.81	0.030
713.25	0.029
713.69	0.032
714.13	0.026
714.58	0.026
715.02	0.026
715.46	0.028
715.90	0.025
716.35	0.028
716.79	0.026
717.23	0.027
717.67	0.028
718.11	0.026
718.56	0.025
719.00	0.025
719.44	0.024
719.88	0.027
720.32	0.025
720.76	0.025
721.21	0.024
721.65	0.025
722.09	0.025
722.53	0.025
722.97	0.025
723.41	0.024
723.86	0.023
724.30	0.026
724.74	0.027
725.18	0.022
725.62	0.026
726.06	0.026
726.50	0.027
726.95	0.024
727.39	0.025
727.83	0.023
728.27	0.024
728.71	0.024
729.15	0.025
729.59	0.023
730.03	0.025
730.48	0.028
730.92	0.024
731.36	0.025
731.80	0.023
732.24	0.025
732.68	0.024
733.12	0.026
733.56	0.026
734.00	0.025
734.44	0.026
734.89	0.027
735.33	0.026
735.77	0.027
736.21	0.027
736.65	0.026
737.09	0.026
737.53	0.029
737.97	0.029
738.41	0.027
738.85	0.029
739.29	0.029
739.73	0.027
740.17	0.027
740.61	0.028
741.05	0.026
741.49	0.029
741.93	0.025
742.37	0.029
742.81	0.030
743.26	0.029
743.70	0.024
744.14	0.031
744.58	0.028
745.02	0.025
745.46	0.028
745.90	0.028
746.34	0.028
746.78	0.027
747.22	0.027
747.66	0.026
748.10	0.027
748.54	0.027
748.98	0.027
749.42	0.030
749.86	0.029
750.29	0.026
750.73	0.028
751.17	0.026
751.61	0.026
752.05	0.027
752.49	0.025
752.93	0.025
753.37	0.027
753.81	0.029
754.25	0.023
754.69	0.023
755.13	0.027
755.57	0.027
756.01	0.024
756.45	0.028
756.89	0.031
757.33	0.028
757.77	0.024
758.21	0.026
758.64	0.026
759.08	0.025
759.52	0.029
759.96	0.024
760.40	0.026
760.84	0.026
761.28	0.026
761.72	0.026
762.16	0.025
762.60	0.026
763.03	0.024
763.47	0.025
763.91	0.028
764.35	0.025
764.79	0.027
765.23	0.025
765.67	0.028
766.11	0.027
766.54	0.024
766.98	0.026
767.42	0.025
767.86	0.024
768.30	0.024
768.74	0.026
769.17	0.024
769.61	0.027
770.05	0.024
770.49	0.025
770.93	0.029
771.37	0.028
771.80	0.025
772.24	0.028
772.68	0.028
773.12	0.028
773.56	0.028
774.00	0.025
774.43	0.028
774.87	0.024
775.31	0.026
775.75	0.025
776.19	0.026
776.62	0.025
777.06	0.024
777.50	0.026
777.94	0.027
778.37	0.028
778.81	0.026
779.25	0.028
779.69	0.028
780.13	0.023
780.56	0.025
781.00	0.029
781.44	0.025
781.88	0.029
782.31	0.026
782.75	0.028
783.19	0.028
783.63	0.025
784.06	0.022
784.50	0.026
784.94	0.024
785.37	0.027
785.81	0.026
786.25	0.024
786.69	0.027
787.12	0.027
787.56	0.027
788.00	0.027
788.43	0.024
788.87	0.029
789.31	0.028
789.75	0.029
790.18	0.025
790.62	0.025
791.06	0.027
791.49	0.026
791.93	0.029
792.37	0.026
792.80	0.027
793.24	0.025
793.68	0.024
794.11	0.024
794.55	0.029
794.99	0.024
795.42	0.026
795.86	0.028
796.30	0.025
796.73	0.029
797.17	0.028
797.61	0.025
798.04	0.026
798.48	0.028
798.91	0.028
799.35	0.025
799.79	0.028
800.22	0.020
800.66	0.024
801.10	0.025
801.53	0.032
801.97	0.029
802.40	0.022
802.84	0.026
803.28	0.027
803.71	0.025
804.15	0.027
804.58	0.027
805.02	0.026
805.46	0.028
805.89	0.031
806.33	0.024
806.76	0.023
807.20	0.024
807.63	0.026
808.07	0.023
808.51	0.021
808.94	0.027
809.38	0.027
809.81	0.021
810.25	0.026
810.68	0.025
811.12	0.025
811.55	0.024
811.99	0.030
812.42	0.023
812.86	0.029
813.29	0.028
813.73	0.026
814.17	0.025
814.60	0.025
815.04	0.026
815.47	0.023
815.91	0.026
816.34	0.029
816.78	0.027
817.21	0.026
817.65	0.023
818.08	0.026
818.52	0.030
818.95	0.030
819.39	0.024
819.82	0.030
820.25	0.026
820.69	0.028
821.12	0.025
821.56	0.027
821.99	0.027
822.43	0.026
822.86	0.024
823.30	0.026
823.73	0.024
824.17	0.021
824.60	0.028
825.04	0.025
825.47	0.027
825.90	0.030
826.34	0.024
826.77	0.031
827.21	0.029
827.64	0.028
828.08	0.028
828.51	0.027
828.94	0.027
829.38	0.033
829.81	0.033
830.25	0.031
830.68	0.032
831.11	0.033
831.55	0.037
831.98	0.027
832.42	0.028
832.85	0.035
833.28	0.033
833.72	0.031
834.15	0.035
834.58	0.032
835.02	0.033
835.45	0.030
835.88	0.032
836.32	0.035
836.75	0.031
837.19	0.037
837.62	0.033
838.05	0.035
838.49	0.036
838.92	0.033
839.35	0.036
839.79	0.032
840.22	0.035
840.65	0.036
841.09	0.034
841.52	0.034
841.95	0.036
842.39	0.033
842.82	0.035
843.25	0.035
843.68	0.041
844.12	0.040
844.55	0.031
844.98	0.035
845.42	0.038
845.85	0.037
846.28	0.033
846.71	0.034
847.15	0.040
847.58	0.041
848.01	0.030
848.45	0.039
848.88	0.036
849.31	0.036
849.74	0.035
850.18	0.037
850.61	0.036
851.04	0.040
851.47	0.041
851.91	0.035
852.34	0.041
852.77	0.039
853.20	0.044
853.64	0.035
854.07	0.035
854.50	0.036
854.93	0.042
855.36	0.035
855.80	0.038
856.23	0.037
856.66	0.037
857.09	0.043
857.52	0.041
857.96	0.040
858.39	0.040
858.82	0.032
859.25	0.038
859.68	0.042
860.12	0.033
860.55	0.034
860.98	0.044
861.41	0.043
861.84	0.042
862.27	0.033
862.71	0.043
863.14	0.044
863.57	0.038
864.00	0.044
864.43	0.046
864.86	0.035
865.30	0.045
865.73	0.041
866.16	0.041
866.59	0.042
867.02	0.038
867.45	0.036
867.88	0.043
868.31	0.039
868.75	0.045
869.18	0.039
869.61	0.040
870.04	0.040
870.47	0.040
870.90	0.044
871.33	0.044
871.76	0.039
872.19	0.051
872.62	0.045
873.06	0.041
873.49	0.045
873.92	0.043
874.35	0.046
874.78	0.045
875.21	0.043
875.64	0.039
876.07	0.042
876.50	0.044
876.93	0.046
877.36	0.046
877.79	0.041
878.22	0.050
878.65	0.050
879.08	0.044
879.51	0.046
879.94	0.050
880.37	0.042
880.80	0.047
881.23	0.048
881.67	0.046
882.10	0.042
882.53	0.048
882.96	0.049
883.39	0.042
883.82	0.036
884.25	0.047
884.68	0.049
885.11	0.051
885.54	0.052
885.97	0.054
886.39	0.046
886.82	0.051
887.25	0.043
887.68	0.052
888.11	0.049
888.54	0.053
888.97	0.052
889.40	0.052
889.83	0.054
890.26	0.048
890.69	0.054
891.12	0.053
891.55	0.060
891.98	0.049
892.41	0.057
892.84	0.055
893.27	0.052
893.70	0.053
894.13	0.053
894.56	0.052
894.98	0.058
895.41	0.050
895.84	0.057
896.27	0.056
896.70	0.058
897.13	0.054
897.56	0.058
897.99	0.051
898.42	0.061
898.85	0.057
899.27	0.049
899.70	0.054
900.13	0.053
900.56	0.055
900.99	0.054
901.42	0.057
901.85	0.058
902.28	0.062
902.70	0.054
903.13	0.055
903.56	0.056
903.99	0.057
904.42	0.054
904.85	0.056
905.27	0.057
905.70	0.058
906.13	0.054
906.56	0.057
906.99	0.057
907.42	0.057
907.84	0.058
908.27	0.058
908.70	0.060
909.13	0.057
909.56	0.060
909.98	0.054
910.41	0.054
910.84	0.056
911.27	0.062
911.70	0.058
912.12	0.057
912.55	0.060
912.98	0.059
913.41	0.055
913.84	0.061
914.26	0.057
914.69	0.057
915.12	0.055
915.55	0.054
915.97	0.059
916.40	0.058
916.83	0.058
917.26	0.063
917.68	0.059
918.11	0.054
918.54	0.058
918.97	0.059
919.39	0.060
919.82	0.061
920.25	0.055
920.67	0.063
921.10	0.061
921.53	0.060
921.96	0.064
922.38	0.063
922.81	0.064
923.24	0.060
923.66	0.064
924.09	0.063
924.52	0.062
924.94	0.061
925.37	0.062
925.80	0.063
926.22	0.064
926.65	0.067
927.08	0.068
927.50	0.068
927.93	0.072
928.36	0.073
928.78	0.072
929.21	0.073
929.64	0.074
930.06	0.069
930.49	0.070
930.92	0.069
931.34	0.078
931.77	0.078
932.20	0.074
932.62	0.078
933.05	0.077
933.47	0.084
933.90	0.081
934.33	0.083
934.75	0.086
935.18	0.082
935.61	0.081
936.03	0.090
936.46	0.089
936.88	0.086
937.31	0.092
937.73	0.092
938.16	0.097
938.59	0.092
939.01	0.093
939.44	0.099
939.86	0.095
940.29	0.098
940.71	0.110
941.14	0.103
941.57	0.104
941.99	0.105
942.42	0.111
942.84	0.114
943.27	0.115
943.69	0.115
944.12	0.126
944.54	0.124
944.97	0.123
945.39	0.120
945.82	0.118
946.24	0.125
946.67	0.127
947.09	0.133
947.52	0.127
947.94	0.135
948.37	0.141
948.79	0.141
949.22	0.142
949.64	0.140
950.07	0.141
950.49	0.150
950.92	0.158
951.34	0.156
951.77	0.160
952.19	0.160
952.62	0.156
953.04	0.164
953.47	0.172
953.89	0.174
954.32	0.172
954.74	0.187
955.17	0.180
955.59	0.179
956.01	0.190
956.44	0.189
956.86	0.189
957.29	0.196
957.71	0.197
958.14	0.196
958.56	0.202
958.98	0.200
959.41	0.202
959.83	0.203
960.26	0.201
960.68	0.207
961.10	0.207
961.53	0.210
961.95	0.210
962.38	0.210
962.80	0.217
963.22	0.213
963.65	0.213
964.07	0.217
964.50	0.215
964.92	0.211
965.34	0.221
965.77	0.222
966.19	0.213
966.61	0.227
967.04	0.226
967.46	0.226
967.88	0.219
968.31	0.217
968.73	0.225
969.15	0.224
969.58	0.221
970.00	0.221
970.42	0.225
970.85	0.220
971.27	0.228
971.69	0.231
972.12	0.231
972.54	0.226
972.96	0.232
973.39	0.232
973.81	0.222
974.23	0.231
974.65	0.236
975.08	0.229
975.50	0.226
975.92	0.229
976.35	0.225
976.77	0.225
977.19	0.228
977.61	0.224
978.04	0.231
978.46	0.233
978.88	0.229
979.30	0.231
979.73	0.234
980.15	0.226
980.57	0.228
980.99	0.229
981.42	0.238
981.84	0.234
982.26	0.232
982.68	0.226
983.11	0.229
983.53	0.237
983.95	0.225
984.37	0.224
984.79	0.226
985.22	0.232
985.64	0.227
986.06	0.222
986.48	0.229
986.90	0.228
987.33	0.231
987.75	0.225
988.17	0.230
988.59	0.234
989.01	0.222
989.43	0.223
989.86	0.217
990.28	0.220
990.70	0.224
991.12	0.217
991.54	0.212
991.96	0.218
992.39	0.221
992.81	0.218
993.23	0.219
993.65	0.228
994.07	0.213
994.49	0.217
994.91	0.215
995.34	0.206
995.76	0.213
996.18	0.213
996.60	0.215
997.02	0.209
997.44	0.208
997.86	0.211
998.28	0.205
998.70	0.214
999.12	0.215
999.55	0.206
999.97	0.208
1000.39	0.214
1000.81	0.210
1001.23	0.199
1001.65	0.199
1002.07	0.197
1002.49	0.200
1002.91	0.210
1003.33	0.192
1003.75	0.204
1004.17	0.201
1004.59	0.197
1005.01	0.206
1005.43	0.203
1005.85	0.191
1006.28	0.197
1006.70	0.195
1007.12	0.201
1007.54	0.193
1007.96	0.197
1008.38	0.193
1008.80	0.182
1009.22	0.186
1009.64	0.189
1010.06	0.184
1010.48	0.181
1010.90	0.181
1011.32	0.184
1011.74	0.186
1012.16	0.177
1012.58	0.183
1013.00	0.186
1013.42	0.178
1013.84	0.174
1014.26	0.183
1014.67	0.182
1015.09	0.176
1015.51	0.171
1015.93	0.175
1016.35	0.185
1016.77	0.177
1017.19	0.164
1017.61	0.169
1018.03	0.168
1018.45	0.163
1018.87	0.177
1019.29	0.174
1019.71	0.163
1020.13	0.170
1020.55	0.171
1020.97	0.163
1021.38	0.164
1021.80	0.161
1022.22	0.166
1022.64	0.157
1023.06	0.153
1023.48	0.158
1023.90	0.149
1024.32	0.150
1024.74	0.156
1025.15	0.147
1025.57	0.146
1025.99	0.144
1026.41	0.148
1026.83	0.151
1027.25	0.147
1027.67	0.133
1028.08	0.148
1028.50	0.143
1028.92	0.132
1029.34	0.137
1029.76	0.135
1030.18	0.136
1030.60	0.132
1031.01	0.139
1031.43	0.129
1031.85	0.126
1032.27	0.126
1032.69	0.143
1033.10	0.148
1033.52	0.137
1033.94	0.126
1034.36	0.135
1034.78	0.128
1035.19	0.109
1035.61	0.125
1036.03	0.135
1036.45	0.125
1036.87	0.114
1037.28	0.157
1037.70	0.118
1038.12	0.109
1038.54	0.135
1038.95	0.125
1039.37	0.117
1039.79	0.120
1040.21	0.131
1040.62	0.124
1041.04	0.112
1041.46	0.104
1041.88	0.115
1042.29	0.106
1042.71	0.098
1043.13	0.138
1043.55	0.110
1043.96	0.094
1044.38	0.101
1044.80	0.112
1045.21	0.111
1045.63	0.120
1046.05	0.102
1046.47	0.117
1046.88	0.112
1047.30	0.116
1047.72	0.120
1048.13	0.100
1048.55	0.094
1048.97	0.085
1049.38	0.115
1049.80	0.119
1050.22	0.105
1050.63	0.097
1051.05	0.099
1051.47	0.111
1051.88	0.090
1052.30	0.117
1052.72	0.095
1053.13	0.095
1053.55	0.101
1053.97	0.102
1054.38	0.125
1054.80	0.063
1055.21	0.106
1055.63	0.100
1056.05	0.112
1056.46	0.059
1056.88	0.143
1057.29	0.091
1057.71	0.115
1058.13	0.132
1058.54	0.097
1058.96	0.102
1059.37	0.093
1059.79	0.100
1060.21	0.137
1060.62	0.088
1061.04	0.135
1061.45	0.151
1061.87	0.115
1062.28	0.103
1062.70	0.144
1063.12	0.091
1063.53	0.079
1063.95	0.093
1064.36	0.082
1064.78	0.152
1065.19	0.083
1065.61	0.062
1066.02	0.176
1066.44	0.092
1066.85	0.089
1067.27	0.152
1067.68	0.080
1068.10	0.119
1068.51	0.072
1068.93	0.145
1069.35	0.150
1069.76	0.155
1070.17	0.135
1070.59	0.205
1071.00	0.167
1071.42	0.067
1071.83	0.181
1072.25	0.247
1072.66	0.260
1073.08	0.080
1073.49	0.190
1073.91	0.040
1074.32	0.062
1074.74	0.125
1075.15	0.178
1075.57	0.314
1075.98	0.084
1076.40	0.361
1076.81	0.087
1077.22	0.094
1077.64	0.124
1078.05	0.261
1078.47	0.143
1078.88	0.210
1079.30	0.111
1079.71	0.218
1080.12	0.354
1080.54	0.022
1080.95	0.158
1081.37	0.137
1081.78	0.135
1082.19	0.066
1082.61	0.249
1083.02	0.273
1083.44	0.479
1083.85	0.285
1084.26	0.437
1084.68	0.076
1085.09	0.072
1085.50	0.510
1085.92	0.199
1086.33	0.163
1086.74	0.331
1087.16	0.355
1087.57	0.565
1087.98	0.124
1088.40	0.012
1088.81	0.292
1089.22	-0.000
1089.64	0.375
1090.05	0.394
1090.46	-0.045
1090.88	0.018
1091.29	0.102
1091.70	0.312
1092.12	0.086
1092.53	0.278
1092.94	0.138
1093.36	0.442
1093.77	0.598
1094.18	0.366
1094.59	0.248
1095.01	0.252
1095.42	-0.044
1095.83	0.263
1096.25	0.993
1096.66	0.254
1097.07	0.134
1097.48	0.199
1097.90	0.015
1098.31	1.230
1098.72	0.456
1099.13	0.594
>>>>>End Processed Spectral Data<<<<<
