SpectraSuite Data File
++++++++++++++++++++++++++++++++++++
Date: Tue Mar 29 11:41:07 CEST 2016
User: IPCE
Dark Spectrum Present: Yes
Reference Spectrum Present: Yes
Number of Sampled Component Spectra: 1
Spectrometers: HR+C0708
Integration Time (usec): 1000 (HR+C0708)
Spectra Averaged: 10 (HR+C0708)
Boxcar Smoothing: 0 (HR+C0708)
Correct for Electrical Dark: No (HR+C0708)
Strobe/Lamp Enabled: No (HR+C0708)
Correct for Detector Non-linearity: No (HR+C0708)
Correct for Stray Light: No (HR+C0708)
Number of Pixels in Processed Spectrum: 2048
>>>>>Begin Processed Spectral Data<<<<<
188.76	-0.000
189.23	-0.000
189.70	-0.000
190.17	-0.000
190.64	-0.000
191.12	-0.000
191.59	-0.000
192.06	-0.000
192.53	-0.000
193.01	-0.000
193.48	-0.000
193.95	-0.000
194.42	-0.000
194.90	-0.000
195.37	-0.000
195.84	-0.000
196.31	-0.000
196.78	-0.000
197.26	-0.000
197.73	-0.000
198.20	-0.000
198.67	-0.000
199.14	-0.000
199.62	-0.000
200.09	-0.000
200.56	1.372
201.03	-0.000
201.50	-0.000
201.97	-0.000
202.45	-0.000
202.92	-0.000
203.39	-0.000
203.86	-0.000
204.33	-0.000
204.80	-0.000
205.28	-0.000
205.75	-0.000
206.22	-0.000
206.69	-0.000
207.16	1.534
207.63	-0.000
208.11	-0.000
208.58	-0.000
209.05	1.708
209.52	-0.000
209.99	-0.000
210.46	-0.000
210.93	-0.000
211.41	-0.000
211.88	-0.000
212.35	-0.000
212.82	1.236
213.29	1.405
213.76	-0.000
214.23	-0.000
214.70	-0.000
215.18	-0.000
215.65	-0.000
216.12	-0.000
216.59	-0.000
217.06	1.596
217.53	1.545
218.00	-0.000
218.47	-0.000
218.94	-0.000
219.41	1.764
219.89	1.426
220.36	-0.000
220.83	-0.000
221.30	1.678
221.77	-0.000
222.24	1.953
222.71	2.810
223.18	-0.000
223.65	-0.000
224.12	-0.000
224.59	1.616
225.06	2.254
225.54	-0.000
226.01	2.372
226.48	1.674
226.95	-0.000
227.42	-0.000
227.89	-0.000
228.36	2.987
228.83	-0.000
229.30	-0.000
229.77	-0.000
230.24	-0.000
230.71	-0.000
231.18	-0.000
231.65	2.269
232.12	-0.000
232.59	-0.000
233.06	2.947
233.53	-0.000
234.00	-0.000
234.47	-0.000
234.94	-0.000
235.41	2.951
235.88	-0.000
236.35	-0.000
236.82	-0.000
237.29	-0.000
237.76	-0.000
238.23	-0.000
238.70	-0.000
239.17	-0.000
239.64	-0.000
240.11	2.951
240.58	2.946
241.05	-0.000
241.52	3.163
241.99	2.807
242.46	-0.000
242.93	-0.000
243.40	-0.000
243.87	3.985
244.34	-0.000
244.81	-0.000
245.28	3.541
245.75	2.636
246.22	-0.000
246.69	-0.000
247.16	3.378
247.63	-0.000
248.10	-0.000
248.57	2.871
249.04	-0.000
249.51	3.749
249.98	-0.000
250.45	3.845
250.92	3.099
251.39	-0.000
251.85	3.790
252.32	2.880
252.79	-0.000
253.26	2.980
253.73	-0.000
254.20	2.973
254.67	2.841
255.14	2.877
255.61	2.739
256.08	2.558
256.55	2.609
257.02	2.521
257.49	2.382
257.95	2.290
258.42	2.346
258.89	2.242
259.36	2.187
259.83	2.147
260.30	2.070
260.77	2.054
261.24	1.993
261.71	1.981
262.17	1.935
262.64	1.901
263.11	1.874
263.58	1.828
264.05	1.779
264.52	1.769
264.99	1.720
265.46	1.703
265.92	1.686
266.39	1.655
266.86	1.645
267.33	1.602
267.80	1.566
268.27	1.554
268.74	1.524
269.20	1.515
269.67	1.479
270.14	1.451
270.61	1.444
271.08	1.427
271.55	1.405
272.01	1.399
272.48	1.376
272.95	1.362
273.42	1.358
273.89	1.341
274.36	1.317
274.82	1.309
275.29	1.281
275.76	1.284
276.23	1.265
276.70	1.257
277.16	1.237
277.63	1.222
278.10	1.204
278.57	1.219
279.04	1.200
279.50	1.187
279.97	1.173
280.44	1.161
280.91	1.160
281.38	1.138
281.84	1.141
282.31	1.136
282.78	1.122
283.25	1.114
283.72	1.112
284.18	1.102
284.65	1.102
285.12	1.086
285.59	1.076
286.05	1.078
286.52	1.071
286.99	1.060
287.46	1.055
287.92	1.057
288.39	1.042
288.86	1.037
289.33	1.031
289.79	1.025
290.26	1.021
290.73	1.017
291.20	1.014
291.66	0.998
292.13	1.007
292.60	0.997
293.07	0.994
293.53	0.989
294.00	0.983
294.47	0.985
294.93	0.977
295.40	0.969
295.87	0.972
296.34	0.967
296.80	0.969
297.27	0.959
297.74	0.958
298.20	0.954
298.67	0.948
299.14	0.948
299.60	0.945
300.07	0.940
300.54	0.934
301.01	0.934
301.47	0.935
301.94	0.925
302.41	0.921
302.87	0.925
303.34	0.920
303.81	0.918
304.27	0.915
304.74	0.907
305.21	0.916
305.67	0.905
306.14	0.904
306.61	0.906
307.07	0.901
307.54	0.899
308.01	0.901
308.47	0.889
308.94	0.896
309.40	0.897
309.87	0.894
310.34	0.893
310.80	0.895
311.27	0.897
311.74	0.893
312.20	0.887
312.67	0.889
313.13	0.896
313.60	0.898
314.07	0.890
314.53	0.895
315.00	0.893
315.47	0.892
315.93	0.888
316.40	0.887
316.86	0.886
317.33	0.887
317.80	0.891
318.26	0.895
318.73	0.888
319.19	0.894
319.66	0.890
320.13	0.895
320.59	0.896
321.06	0.893
321.52	0.891
321.99	0.892
322.45	0.902
322.92	0.891
323.39	0.906
323.85	0.897
324.32	0.903
324.78	0.904
325.25	0.901
325.71	0.909
326.18	0.906
326.64	0.906
327.11	0.916
327.58	0.909
328.04	0.911
328.51	0.909
328.97	0.915
329.44	0.911
329.90	0.912
330.37	0.909
330.83	0.915
331.30	0.920
331.76	0.915
332.23	0.918
332.69	0.919
333.16	0.914
333.62	0.918
334.09	0.919
334.56	0.918
335.02	0.914
335.49	0.914
335.95	0.918
336.42	0.916
336.88	0.911
337.35	0.925
337.81	0.913
338.28	0.917
338.74	0.913
339.20	0.915
339.67	0.913
340.13	0.913
340.60	0.905
341.06	0.914
341.53	0.909
341.99	0.909
342.46	0.907
342.92	0.904
343.39	0.901
343.85	0.900
344.32	0.900
344.78	0.898
345.25	0.894
345.71	0.894
346.17	0.893
346.64	0.893
347.10	0.891
347.57	0.890
348.03	0.882
348.50	0.883
348.96	0.880
349.43	0.879
349.89	0.878
350.35	0.874
350.82	0.865
351.28	0.879
351.75	0.874
352.21	0.856
352.67	0.862
353.14	0.852
353.60	0.863
354.07	0.859
354.53	0.852
355.00	0.849
355.46	0.839
355.92	0.825
356.39	0.827
356.85	0.828
357.31	0.816
357.78	0.817
358.24	0.810
358.71	0.803
359.17	0.802
359.63	0.792
360.10	0.793
360.56	0.784
361.03	0.779
361.49	0.783
361.95	0.773
362.42	0.769
362.88	0.759
363.34	0.757
363.81	0.754
364.27	0.749
364.73	0.745
365.20	0.747
365.66	0.735
366.12	0.732
366.59	0.735
367.05	0.725
367.51	0.720
367.98	0.722
368.44	0.709
368.90	0.708
369.37	0.705
369.83	0.700
370.29	0.699
370.76	0.691
371.22	0.689
371.68	0.685
372.15	0.675
372.61	0.672
373.07	0.675
373.54	0.669
374.00	0.663
374.46	0.661
374.92	0.651
375.39	0.647
375.85	0.645
376.31	0.638
376.78	0.636
377.24	0.634
377.70	0.628
378.16	0.629
378.63	0.625
379.09	0.622
379.55	0.618
380.01	0.610
380.48	0.606
380.94	0.604
381.40	0.596
381.87	0.601
382.33	0.595
382.79	0.587
383.25	0.589
383.72	0.584
384.18	0.581
384.64	0.576
385.10	0.570
385.56	0.574
386.03	0.566
386.49	0.559
386.95	0.558
387.41	0.560
387.88	0.557
388.34	0.558
388.80	0.552
389.26	0.550
389.72	0.548
390.19	0.540
390.65	0.540
391.11	0.539
391.57	0.535
392.04	0.531
392.50	0.532
392.96	0.529
393.42	0.532
393.88	0.526
394.34	0.524
394.81	0.519
395.27	0.520
395.73	0.520
396.19	0.515
396.65	0.514
397.12	0.511
397.58	0.514
398.04	0.509
398.50	0.514
398.96	0.509
399.42	0.508
399.89	0.505
400.35	0.502
400.81	0.503
401.27	0.501
401.73	0.504
402.19	0.499
402.65	0.502
403.12	0.499
403.58	0.497
404.04	0.496
404.50	0.492
404.96	0.493
405.42	0.490
405.88	0.496
406.34	0.488
406.81	0.490
407.27	0.491
407.73	0.489
408.19	0.487
408.65	0.485
409.11	0.489
409.57	0.486
410.03	0.485
410.49	0.482
410.96	0.485
411.42	0.488
411.88	0.481
412.34	0.482
412.80	0.482
413.26	0.482
413.72	0.482
414.18	0.482
414.64	0.481
415.10	0.476
415.56	0.479
416.02	0.477
416.48	0.476
416.95	0.477
417.41	0.479
417.87	0.478
418.33	0.477
418.79	0.479
419.25	0.477
419.71	0.480
420.17	0.477
420.63	0.473
421.09	0.479
421.55	0.473
422.01	0.477
422.47	0.478
422.93	0.476
423.39	0.474
423.85	0.479
424.31	0.478
424.77	0.479
425.23	0.478
425.69	0.475
426.15	0.477
426.61	0.473
427.07	0.479
427.53	0.476
427.99	0.473
428.45	0.474
428.91	0.479
429.37	0.478
429.83	0.480
430.29	0.476
430.75	0.476
431.21	0.475
431.67	0.473
432.13	0.476
432.59	0.475
433.05	0.475
433.51	0.477
433.97	0.474
434.43	0.476
434.89	0.476
435.35	0.474
435.81	0.474
436.27	0.479
436.73	0.476
437.19	0.475
437.65	0.477
438.11	0.476
438.57	0.477
439.03	0.480
439.48	0.475
439.94	0.479
440.40	0.479
440.86	0.478
441.32	0.479
441.78	0.478
442.24	0.477
442.70	0.476
443.16	0.476
443.62	0.479
444.08	0.481
444.54	0.480
444.99	0.478
445.45	0.478
445.91	0.475
446.37	0.482
446.83	0.477
447.29	0.476
447.75	0.480
448.21	0.478
448.67	0.478
449.12	0.476
449.58	0.476
450.04	0.479
450.50	0.479
450.96	0.481
451.42	0.481
451.88	0.485
452.34	0.475
452.79	0.481
453.25	0.483
453.71	0.479
454.17	0.478
454.63	0.475
455.09	0.477
455.55	0.478
456.00	0.476
456.46	0.482
456.92	0.482
457.38	0.480
457.84	0.479
458.30	0.479
458.75	0.478
459.21	0.481
459.67	0.481
460.13	0.483
460.59	0.479
461.04	0.481
461.50	0.485
461.96	0.482
462.42	0.484
462.88	0.484
463.33	0.481
463.79	0.487
464.25	0.483
464.71	0.483
465.17	0.485
465.62	0.484
466.08	0.484
466.54	0.491
467.00	0.486
467.46	0.487
467.91	0.486
468.37	0.490
468.83	0.489
469.29	0.492
469.74	0.493
470.20	0.500
470.66	0.495
471.12	0.495
471.57	0.497
472.03	0.500
472.49	0.498
472.95	0.504
473.40	0.502
473.86	0.505
474.32	0.502
474.78	0.506
475.23	0.510
475.69	0.512
476.15	0.514
476.60	0.515
477.06	0.516
477.52	0.515
477.98	0.518
478.43	0.520
478.89	0.524
479.35	0.527
479.80	0.522
480.26	0.529
480.72	0.528
481.18	0.534
481.63	0.533
482.09	0.538
482.55	0.538
483.00	0.541
483.46	0.543
483.92	0.544
484.37	0.549
484.83	0.547
485.29	0.552
485.74	0.552
486.20	0.555
486.66	0.558
487.11	0.565
487.57	0.562
488.03	0.565
488.48	0.565
488.94	0.571
489.40	0.576
489.85	0.574
490.31	0.581
490.77	0.580
491.22	0.582
491.68	0.584
492.13	0.587
492.59	0.589
493.05	0.593
493.50	0.598
493.96	0.603
494.42	0.602
494.87	0.605
495.33	0.610
495.78	0.607
496.24	0.613
496.70	0.615
497.15	0.623
497.61	0.622
498.06	0.623
498.52	0.630
498.98	0.631
499.43	0.630
499.89	0.632
500.34	0.642
500.80	0.640
501.25	0.642
501.71	0.647
502.17	0.651
502.62	0.653
503.08	0.656
503.53	0.657
503.99	0.664
504.44	0.664
504.90	0.661
505.36	0.672
505.81	0.666
506.27	0.672
506.72	0.677
507.18	0.680
507.63	0.680
508.09	0.681
508.54	0.686
509.00	0.691
509.45	0.696
509.91	0.693
510.36	0.700
510.82	0.700
511.27	0.704
511.73	0.709
512.19	0.713
512.64	0.716
513.10	0.713
513.55	0.716
514.01	0.721
514.46	0.724
514.92	0.726
515.37	0.732
515.83	0.732
516.28	0.728
516.73	0.735
517.19	0.746
517.64	0.742
518.10	0.744
518.55	0.742
519.01	0.752
519.46	0.751
519.92	0.752
520.37	0.756
520.83	0.758
521.28	0.762
521.74	0.762
522.19	0.764
522.65	0.767
523.10	0.766
523.55	0.769
524.01	0.780
524.46	0.776
524.92	0.777
525.37	0.782
525.83	0.785
526.28	0.788
526.73	0.791
527.19	0.787
527.64	0.797
528.10	0.793
528.55	0.796
529.01	0.800
529.46	0.799
529.91	0.796
530.37	0.806
530.82	0.808
531.28	0.805
531.73	0.809
532.18	0.811
532.64	0.812
533.09	0.816
533.54	0.821
534.00	0.818
534.45	0.822
534.91	0.823
535.36	0.822
535.81	0.825
536.27	0.827
536.72	0.832
537.17	0.835
537.63	0.834
538.08	0.837
538.54	0.829
538.99	0.841
539.44	0.842
539.90	0.837
540.35	0.845
540.80	0.846
541.26	0.844
541.71	0.852
542.16	0.849
542.62	0.849
543.07	0.853
543.52	0.852
543.98	0.861
544.43	0.858
544.88	0.859
545.34	0.857
545.79	0.862
546.24	0.865
546.69	0.866
547.15	0.870
547.60	0.869
548.05	0.865
548.51	0.869
548.96	0.876
549.41	0.873
549.86	0.876
550.32	0.879
550.77	0.880
551.22	0.883
551.68	0.883
552.13	0.879
552.58	0.885
553.03	0.887
553.49	0.884
553.94	0.888
554.39	0.887
554.84	0.891
555.30	0.894
555.75	0.893
556.20	0.897
556.65	0.892
557.11	0.897
557.56	0.897
558.01	0.897
558.46	0.898
558.92	0.903
559.37	0.903
559.82	0.905
560.27	0.903
560.72	0.906
561.18	0.906
561.63	0.912
562.08	0.908
562.53	0.910
562.99	0.905
563.44	0.907
563.89	0.913
564.34	0.914
564.79	0.911
565.25	0.910
565.70	0.910
566.15	0.914
566.60	0.915
567.05	0.906
567.50	0.915
567.96	0.913
568.41	0.913
568.86	0.912
569.31	0.914
569.76	0.909
570.21	0.911
570.67	0.909
571.12	0.910
571.57	0.912
572.02	0.910
572.47	0.913
572.92	0.910
573.37	0.907
573.83	0.904
574.28	0.909
574.73	0.912
575.18	0.911
575.63	0.903
576.08	0.904
576.53	0.906
576.98	0.903
577.44	0.907
577.89	0.905
578.34	0.903
578.79	0.903
579.24	0.903
579.69	0.903
580.14	0.898
580.59	0.903
581.04	0.900
581.49	0.896
581.95	0.897
582.40	0.897
582.85	0.902
583.30	0.898
583.75	0.902
584.20	0.898
584.65	0.896
585.10	0.899
585.55	0.897
586.00	0.896
586.45	0.894
586.90	0.893
587.35	0.895
587.80	0.894
588.25	0.894
588.71	0.896
589.16	0.894
589.61	0.895
590.06	0.894
590.51	0.896
590.96	0.897
591.41	0.896
591.86	0.896
592.31	0.896
592.76	0.896
593.21	0.896
593.66	0.895
594.11	0.893
594.56	0.897
595.01	0.896
595.46	0.894
595.91	0.899
596.36	0.896
596.81	0.897
597.26	0.902
597.71	0.898
598.16	0.899
598.61	0.900
599.06	0.897
599.51	0.899
599.96	0.899
600.41	0.900
600.86	0.904
601.31	0.901
601.76	0.898
602.21	0.901
602.65	0.906
603.10	0.904
603.55	0.902
604.00	0.903
604.45	0.905
604.90	0.904
605.35	0.908
605.80	0.906
606.25	0.905
606.70	0.904
607.15	0.909
607.60	0.908
608.05	0.904
608.50	0.910
608.95	0.905
609.39	0.908
609.84	0.908
610.29	0.905
610.74	0.910
611.19	0.910
611.64	0.909
612.09	0.909
612.54	0.908
612.99	0.907
613.44	0.910
613.88	0.911
614.33	0.907
614.78	0.907
615.23	0.908
615.68	0.909
616.13	0.905
616.58	0.903
617.03	0.903
617.47	0.906
617.92	0.903
618.37	0.907
618.82	0.900
619.27	0.902
619.72	0.898
620.17	0.896
620.61	0.898
621.06	0.898
621.51	0.897
621.96	0.891
622.41	0.896
622.86	0.890
623.30	0.895
623.75	0.889
624.20	0.888
624.65	0.886
625.10	0.888
625.54	0.886
625.99	0.884
626.44	0.877
626.89	0.878
627.34	0.880
627.78	0.873
628.23	0.875
628.68	0.872
629.13	0.873
629.58	0.871
630.02	0.865
630.47	0.866
630.92	0.868
631.37	0.862
631.81	0.860
632.26	0.861
632.71	0.858
633.16	0.855
633.61	0.849
634.05	0.852
634.50	0.851
634.95	0.847
635.40	0.843
635.84	0.843
636.29	0.836
636.74	0.836
637.18	0.835
637.63	0.837
638.08	0.833
638.53	0.829
638.97	0.830
639.42	0.827
639.87	0.822
640.32	0.823
640.76	0.818
641.21	0.817
641.66	0.817
642.10	0.814
642.55	0.813
643.00	0.811
643.44	0.805
643.89	0.811
644.34	0.804
644.79	0.801
645.23	0.803
645.68	0.798
646.13	0.797
646.57	0.795
647.02	0.794
647.47	0.794
647.91	0.791
648.36	0.793
648.81	0.786
649.25	0.787
649.70	0.786
650.15	0.785
650.59	0.784
651.04	0.784
651.48	0.784
651.93	0.781
652.38	0.775
652.82	0.775
653.27	0.774
653.72	0.776
654.16	0.775
654.61	0.769
655.06	0.770
655.50	0.766
655.95	0.762
656.39	0.756
656.84	0.758
657.29	0.764
657.73	0.758
658.18	0.758
658.62	0.760
659.07	0.756
659.52	0.754
659.96	0.755
660.41	0.751
660.85	0.750
661.30	0.751
661.74	0.751
662.19	0.748
662.64	0.746
663.08	0.742
663.53	0.745
663.97	0.740
664.42	0.736
664.86	0.736
665.31	0.735
665.75	0.733
666.20	0.730
666.65	0.728
667.09	0.727
667.54	0.727
667.98	0.722
668.43	0.722
668.87	0.720
669.32	0.713
669.76	0.718
670.21	0.710
670.65	0.708
671.10	0.706
671.54	0.702
671.99	0.698
672.43	0.697
672.88	0.694
673.32	0.696
673.77	0.689
674.21	0.685
674.66	0.680
675.10	0.680
675.55	0.677
675.99	0.674
676.44	0.670
676.88	0.665
677.33	0.663
677.77	0.660
678.22	0.656
678.66	0.652
679.11	0.647
679.55	0.646
679.99	0.640
680.44	0.635
680.88	0.633
681.33	0.630
681.77	0.625
682.22	0.621
682.66	0.615
683.11	0.609
683.55	0.606
683.99	0.599
684.44	0.599
684.88	0.590
685.33	0.586
685.77	0.583
686.21	0.577
686.66	0.574
687.10	0.566
687.55	0.559
687.99	0.560
688.44	0.553
688.88	0.547
689.32	0.545
689.77	0.539
690.21	0.531
690.65	0.528
691.10	0.525
691.54	0.517
691.99	0.511
692.43	0.507
692.87	0.502
693.32	0.496
693.76	0.488
694.20	0.484
694.65	0.481
695.09	0.473
695.53	0.469
695.98	0.463
696.42	0.456
696.86	0.451
697.31	0.445
697.75	0.444
698.19	0.434
698.64	0.431
699.08	0.424
699.52	0.420
699.97	0.414
700.41	0.407
700.85	0.402
701.30	0.399
701.74	0.393
702.18	0.389
702.63	0.383
703.07	0.375
703.51	0.371
703.96	0.367
704.40	0.362
704.84	0.357
705.28	0.352
705.73	0.346
706.17	0.342
706.61	0.333
707.06	0.331
707.50	0.326
707.94	0.322
708.38	0.315
708.83	0.313
709.27	0.309
709.71	0.303
710.15	0.298
710.60	0.295
711.04	0.288
711.48	0.284
711.92	0.283
712.37	0.278
712.81	0.269
713.25	0.265
713.69	0.261
714.13	0.258
714.58	0.255
715.02	0.251
715.46	0.248
715.90	0.244
716.35	0.242
716.79	0.236
717.23	0.232
717.67	0.229
718.11	0.224
718.56	0.223
719.00	0.219
719.44	0.216
719.88	0.208
720.32	0.208
720.76	0.207
721.21	0.199
721.65	0.197
722.09	0.195
722.53	0.191
722.97	0.189
723.41	0.185
723.86	0.181
724.30	0.181
724.74	0.177
725.18	0.176
725.62	0.172
726.06	0.168
726.50	0.165
726.95	0.160
727.39	0.162
727.83	0.160
728.27	0.157
728.71	0.156
729.15	0.154
729.59	0.149
730.03	0.148
730.48	0.145
730.92	0.141
731.36	0.138
731.80	0.138
732.24	0.137
732.68	0.129
733.12	0.132
733.56	0.129
734.00	0.126
734.44	0.129
734.89	0.124
735.33	0.123
735.77	0.120
736.21	0.118
736.65	0.120
737.09	0.115
737.53	0.116
737.97	0.113
738.41	0.110
738.85	0.109
739.29	0.106
739.73	0.104
740.17	0.104
740.61	0.102
741.05	0.100
741.49	0.102
741.93	0.101
742.37	0.099
742.81	0.096
743.26	0.096
743.70	0.093
744.14	0.092
744.58	0.092
745.02	0.093
745.46	0.089
745.90	0.088
746.34	0.089
746.78	0.085
747.22	0.083
747.66	0.083
748.10	0.080
748.54	0.080
748.98	0.078
749.42	0.080
749.86	0.081
750.29	0.075
750.73	0.078
751.17	0.074
751.61	0.074
752.05	0.075
752.49	0.072
752.93	0.071
753.37	0.071
753.81	0.070
754.25	0.067
754.69	0.066
755.13	0.065
755.57	0.065
756.01	0.066
756.45	0.066
756.89	0.065
757.33	0.067
757.77	0.064
758.21	0.063
758.64	0.058
759.08	0.061
759.52	0.061
759.96	0.059
760.40	0.059
760.84	0.057
761.28	0.055
761.72	0.055
762.16	0.058
762.60	0.055
763.03	0.054
763.47	0.055
763.91	0.053
764.35	0.054
764.79	0.052
765.23	0.053
765.67	0.050
766.11	0.051
766.54	0.053
766.98	0.048
767.42	0.047
767.86	0.049
768.30	0.047
768.74	0.046
769.17	0.049
769.61	0.048
770.05	0.045
770.49	0.045
770.93	0.046
771.37	0.044
771.80	0.042
772.24	0.043
772.68	0.047
773.12	0.045
773.56	0.040
774.00	0.038
774.43	0.042
774.87	0.041
775.31	0.045
775.75	0.041
776.19	0.042
776.62	0.038
777.06	0.041
777.50	0.042
777.94	0.040
778.37	0.041
778.81	0.042
779.25	0.041
779.69	0.035
780.13	0.040
780.56	0.036
781.00	0.039
781.44	0.039
781.88	0.040
782.31	0.041
782.75	0.039
783.19	0.037
783.63	0.039
784.06	0.040
784.50	0.034
784.94	0.036
785.37	0.038
785.81	0.036
786.25	0.033
786.69	0.036
787.12	0.036
787.56	0.033
788.00	0.033
788.43	0.036
788.87	0.037
789.31	0.035
789.75	0.032
790.18	0.034
790.62	0.035
791.06	0.030
791.49	0.032
791.93	0.032
792.37	0.033
792.80	0.032
793.24	0.034
793.68	0.031
794.11	0.033
794.55	0.031
794.99	0.032
795.42	0.030
795.86	0.030
796.30	0.031
796.73	0.031
797.17	0.031
797.61	0.033
798.04	0.030
798.48	0.030
798.91	0.033
799.35	0.030
799.79	0.031
800.22	0.038
800.66	0.029
801.10	0.028
801.53	0.028
801.97	0.025
802.40	0.026
802.84	0.031
803.28	0.031
803.71	0.032
804.15	0.029
804.58	0.030
805.02	0.031
805.46	0.034
805.89	0.027
806.33	0.030
806.76	0.029
807.20	0.030
807.63	0.026
808.07	0.027
808.51	0.028
808.94	0.028
809.38	0.030
809.81	0.029
810.25	0.029
810.68	0.034
811.12	0.032
811.55	0.030
811.99	0.025
812.42	0.028
812.86	0.027
813.29	0.031
813.73	0.027
814.17	0.029
814.60	0.028
815.04	0.024
815.47	0.029
815.91	0.026
816.34	0.026
816.78	0.026
817.21	0.026
817.65	0.026
818.08	0.027
818.52	0.031
818.95	0.030
819.39	0.026
819.82	0.027
820.25	0.030
820.69	0.027
821.12	0.026
821.56	0.028
821.99	0.027
822.43	0.028
822.86	0.028
823.30	0.032
823.73	0.026
824.17	0.027
824.60	0.026
825.04	0.027
825.47	0.027
825.90	0.030
826.34	0.028
826.77	0.027
827.21	0.029
827.64	0.029
828.08	0.024
828.51	0.020
828.94	0.031
829.38	0.035
829.81	0.029
830.25	0.031
830.68	0.029
831.11	0.034
831.55	0.038
831.98	0.032
832.42	0.032
832.85	0.037
833.28	0.031
833.72	0.036
834.15	0.034
834.58	0.036
835.02	0.037
835.45	0.033
835.88	0.034
836.32	0.033
836.75	0.031
837.19	0.031
837.62	0.036
838.05	0.032
838.49	0.033
838.92	0.035
839.35	0.033
839.79	0.031
840.22	0.032
840.65	0.036
841.09	0.034
841.52	0.040
841.95	0.040
842.39	0.038
842.82	0.031
843.25	0.036
843.68	0.035
844.12	0.038
844.55	0.033
844.98	0.038
845.42	0.032
845.85	0.034
846.28	0.035
846.71	0.037
847.15	0.034
847.58	0.033
848.01	0.039
848.45	0.039
848.88	0.036
849.31	0.038
849.74	0.035
850.18	0.038
850.61	0.040
851.04	0.039
851.47	0.040
851.91	0.039
852.34	0.036
852.77	0.042
853.20	0.037
853.64	0.036
854.07	0.038
854.50	0.041
854.93	0.039
855.36	0.040
855.80	0.037
856.23	0.039
856.66	0.041
857.09	0.040
857.52	0.039
857.96	0.038
858.39	0.040
858.82	0.041
859.25	0.039
859.68	0.036
860.12	0.042
860.55	0.041
860.98	0.031
861.41	0.037
861.84	0.040
862.27	0.036
862.71	0.038
863.14	0.041
863.57	0.042
864.00	0.040
864.43	0.044
864.86	0.042
865.30	0.038
865.73	0.043
866.16	0.044
866.59	0.042
867.02	0.037
867.45	0.043
867.88	0.038
868.31	0.043
868.75	0.047
869.18	0.042
869.61	0.042
870.04	0.039
870.47	0.040
870.90	0.042
871.33	0.038
871.76	0.043
872.19	0.032
872.62	0.042
873.06	0.047
873.49	0.044
873.92	0.043
874.35	0.040
874.78	0.042
875.21	0.049
875.64	0.046
876.07	0.045
876.50	0.047
876.93	0.047
877.36	0.050
877.79	0.045
878.22	0.043
878.65	0.050
879.08	0.048
879.51	0.048
879.94	0.053
880.37	0.047
880.80	0.047
881.23	0.051
881.67	0.052
882.10	0.053
882.53	0.048
882.96	0.046
883.39	0.046
883.82	0.048
884.25	0.043
884.68	0.047
885.11	0.049
885.54	0.047
885.97	0.050
886.39	0.048
886.82	0.049
887.25	0.048
887.68	0.051
888.11	0.049
888.54	0.048
888.97	0.050
889.40	0.053
889.83	0.047
890.26	0.050
890.69	0.057
891.12	0.049
891.55	0.051
891.98	0.049
892.41	0.045
892.84	0.048
893.27	0.050
893.70	0.048
894.13	0.048
894.56	0.052
894.98	0.049
895.41	0.051
895.84	0.048
896.27	0.050
896.70	0.048
897.13	0.049
897.56	0.052
897.99	0.052
898.42	0.051
898.85	0.051
899.27	0.047
899.70	0.052
900.13	0.052
900.56	0.049
900.99	0.051
901.42	0.054
901.85	0.056
902.28	0.055
902.70	0.055
903.13	0.050
903.56	0.053
903.99	0.051
904.42	0.053
904.85	0.050
905.27	0.050
905.70	0.047
906.13	0.051
906.56	0.047
906.99	0.050
907.42	0.054
907.84	0.050
908.27	0.051
908.70	0.052
909.13	0.046
909.56	0.052
909.98	0.057
910.41	0.051
910.84	0.049
911.27	0.053
911.70	0.050
912.12	0.051
912.55	0.054
912.98	0.052
913.41	0.048
913.84	0.050
914.26	0.050
914.69	0.052
915.12	0.049
915.55	0.053
915.97	0.048
916.40	0.057
916.83	0.054
917.26	0.054
917.68	0.055
918.11	0.049
918.54	0.052
918.97	0.054
919.39	0.052
919.82	0.052
920.25	0.053
920.67	0.052
921.10	0.057
921.53	0.055
921.96	0.053
922.38	0.056
922.81	0.060
923.24	0.058
923.66	0.056
924.09	0.060
924.52	0.058
924.94	0.057
925.37	0.060
925.80	0.060
926.22	0.058
926.65	0.061
927.08	0.058
927.50	0.062
927.93	0.064
928.36	0.062
928.78	0.066
929.21	0.067
929.64	0.068
930.06	0.071
930.49	0.071
930.92	0.069
931.34	0.071
931.77	0.069
932.20	0.077
932.62	0.075
933.05	0.079
933.47	0.074
933.90	0.079
934.33	0.080
934.75	0.083
935.18	0.087
935.61	0.086
936.03	0.089
936.46	0.089
936.88	0.090
937.31	0.094
937.73	0.092
938.16	0.095
938.59	0.099
939.01	0.098
939.44	0.101
939.86	0.108
940.29	0.099
940.71	0.101
941.14	0.106
941.57	0.111
941.99	0.112
942.42	0.112
942.84	0.109
943.27	0.115
943.69	0.119
944.12	0.119
944.54	0.116
944.97	0.125
945.39	0.119
945.82	0.131
946.24	0.124
946.67	0.131
947.09	0.128
947.52	0.128
947.94	0.136
948.37	0.137
948.79	0.141
949.22	0.139
949.64	0.141
950.07	0.144
950.49	0.151
950.92	0.144
951.34	0.154
951.77	0.155
952.19	0.152
952.62	0.164
953.04	0.161
953.47	0.170
953.89	0.174
954.32	0.176
954.74	0.175
955.17	0.179
955.59	0.180
956.01	0.178
956.44	0.191
956.86	0.186
957.29	0.191
957.71	0.191
958.14	0.194
958.56	0.199
958.98	0.201
959.41	0.200
959.83	0.200
960.26	0.208
960.68	0.209
961.10	0.205
961.53	0.203
961.95	0.206
962.38	0.210
962.80	0.205
963.22	0.211
963.65	0.215
964.07	0.208
964.50	0.217
964.92	0.216
965.34	0.212
965.77	0.222
966.19	0.217
966.61	0.217
967.04	0.221
967.46	0.218
967.88	0.224
968.31	0.219
968.73	0.218
969.15	0.222
969.58	0.223
970.00	0.227
970.42	0.224
970.85	0.226
971.27	0.222
971.69	0.225
972.12	0.224
972.54	0.227
972.96	0.223
973.39	0.225
973.81	0.224
974.23	0.223
974.65	0.228
975.08	0.224
975.50	0.226
975.92	0.228
976.35	0.226
976.77	0.225
977.19	0.226
977.61	0.228
978.04	0.223
978.46	0.231
978.88	0.218
979.30	0.230
979.73	0.230
980.15	0.229
980.57	0.230
980.99	0.233
981.42	0.222
981.84	0.231
982.26	0.224
982.68	0.228
983.11	0.220
983.53	0.230
983.95	0.227
984.37	0.230
984.79	0.226
985.22	0.225
985.64	0.230
986.06	0.213
986.48	0.229
986.90	0.223
987.33	0.223
987.75	0.229
988.17	0.225
988.59	0.228
989.01	0.223
989.43	0.223
989.86	0.221
990.28	0.222
990.70	0.217
991.12	0.220
991.54	0.216
991.96	0.218
992.39	0.216
992.81	0.213
993.23	0.215
993.65	0.219
994.07	0.208
994.49	0.208
994.91	0.214
995.34	0.208
995.76	0.216
996.18	0.211
996.60	0.208
997.02	0.218
997.44	0.211
997.86	0.208
998.28	0.208
998.70	0.207
999.12	0.207
999.55	0.215
999.97	0.206
1000.39	0.203
1000.81	0.208
1001.23	0.201
1001.65	0.203
1002.07	0.202
1002.49	0.203
1002.91	0.208
1003.33	0.193
1003.75	0.200
1004.17	0.196
1004.59	0.201
1005.01	0.208
1005.43	0.190
1005.85	0.199
1006.28	0.197
1006.70	0.196
1007.12	0.198
1007.54	0.190
1007.96	0.187
1008.38	0.192
1008.80	0.185
1009.22	0.190
1009.64	0.187
1010.06	0.192
1010.48	0.187
1010.90	0.184
1011.32	0.189
1011.74	0.189
1012.16	0.188
1012.58	0.183
1013.00	0.182
1013.42	0.177
1013.84	0.176
1014.26	0.176
1014.67	0.176
1015.09	0.172
1015.51	0.180
1015.93	0.174
1016.35	0.172
1016.77	0.175
1017.19	0.155
1017.61	0.179
1018.03	0.175
1018.45	0.170
1018.87	0.175
1019.29	0.159
1019.71	0.166
1020.13	0.162
1020.55	0.175
1020.97	0.169
1021.38	0.167
1021.80	0.165
1022.22	0.171
1022.64	0.151
1023.06	0.165
1023.48	0.163
1023.90	0.155
1024.32	0.163
1024.74	0.162
1025.15	0.161
1025.57	0.162
1025.99	0.158
1026.41	0.140
1026.83	0.173
1027.25	0.161
1027.67	0.150
1028.08	0.150
1028.50	0.153
1028.92	0.146
1029.34	0.157
1029.76	0.140
1030.18	0.164
1030.60	0.155
1031.01	0.148
1031.43	0.148
1031.85	0.149
1032.27	0.146
1032.69	0.139
1033.10	0.145
1033.52	0.138
1033.94	0.146
1034.36	0.160
1034.78	0.139
1035.19	0.135
1035.61	0.146
1036.03	0.159
1036.45	0.144
1036.87	0.149
1037.28	0.147
1037.70	0.137
1038.12	0.142
1038.54	0.141
1038.95	0.134
1039.37	0.137
1039.79	0.148
1040.21	0.140
1040.62	0.160
1041.04	0.146
1041.46	0.146
1041.88	0.169
1042.29	0.143
1042.71	0.140
1043.13	0.160
1043.55	0.145
1043.96	0.160
1044.38	0.134
1044.80	0.129
1045.21	0.145
1045.63	0.149
1046.05	0.134
1046.47	0.151
1046.88	0.131
1047.30	0.153
1047.72	0.150
1048.13	0.122
1048.55	0.147
1048.97	0.146
1049.38	0.111
1049.80	0.164
1050.22	0.170
1050.63	0.131
1051.05	0.161
1051.47	0.128
1051.88	0.132
1052.30	0.158
1052.72	0.120
1053.13	0.153
1053.55	0.122
1053.97	0.134
1054.38	0.154
1054.80	0.195
1055.21	0.129
1055.63	0.171
1056.05	0.143
1056.46	0.189
1056.88	0.149
1057.29	0.145
1057.71	0.173
1058.13	0.198
1058.54	0.175
1058.96	0.187
1059.37	0.174
1059.79	0.198
1060.21	0.149
1060.62	0.183
1061.04	0.253
1061.45	0.173
1061.87	0.189
1062.28	0.224
1062.70	0.199
1063.12	0.209
1063.53	0.243
1063.95	0.213
1064.36	0.272
1064.78	0.276
1065.19	0.199
1065.61	0.244
1066.02	0.207
1066.44	0.215
1066.85	0.322
1067.27	0.266
1067.68	0.224
1068.10	0.336
1068.51	0.265
1068.93	0.324
1069.35	0.511
1069.76	0.273
1070.17	0.398
1070.59	0.369
1071.00	0.318
1071.42	0.463
1071.83	0.452
1072.25	0.289
1072.66	0.503
1073.08	0.339
1073.49	0.391
1073.91	0.479
1074.32	0.209
1074.74	0.443
1075.15	0.562
1075.57	0.535
1075.98	-0.000
1076.40	0.250
1076.81	0.190
1077.22	0.517
1077.64	0.548
1078.05	0.762
1078.47	-0.000
1078.88	0.447
1079.30	0.419
1079.71	1.418
1080.12	1.156
1080.54	-0.000
1080.95	-0.000
1081.37	-0.000
1081.78	1.121
1082.19	0.871
1082.61	-0.000
1083.02	-0.000
1083.44	0.342
1083.85	-0.000
1084.26	-0.000
1084.68	1.099
1085.09	-0.000
1085.50	-0.000
1085.92	0.814
1086.33	-0.000
1086.74	-0.000
1087.16	-0.000
1087.57	-0.000
1087.98	-0.000
1088.40	-0.000
1088.81	-0.000
1089.22	1.566
1089.64	-0.000
1090.05	1.126
1090.46	0.983
1090.88	-0.000
1091.29	1.597
1091.70	-0.000
1092.12	-0.000
1092.53	-0.000
1092.94	-0.000
1093.36	-0.000
1093.77	-0.000
1094.18	-0.000
1094.59	-0.000
1095.01	0.611
1095.42	-0.000
1095.83	-0.000
1096.25	1.235
1096.66	-0.000
1097.07	-0.000
1097.48	-0.000
1097.90	-0.000
1098.31	-0.000
1098.72	-0.000
1099.13	-0.000
>>>>>End Processed Spectral Data<<<<<
