SpectraSuite Data File
++++++++++++++++++++++++++++++++++++
Date: Wed May 04 15:50:54 CEST 2016
User: spectrasuite
Dark Spectrum Present: Yes
Reference Spectrum Present: Yes
Number of Sampled Component Spectra: 1
Spectrometers: HR+C0708
Integration Time (usec): 1000 (HR+C0708)
Spectra Averaged: 10 (HR+C0708)
Boxcar Smoothing: 0 (HR+C0708)
Correct for Electrical Dark: No (HR+C0708)
Strobe/Lamp Enabled: No (HR+C0708)
Correct for Detector Non-linearity: No (HR+C0708)
Correct for Stray Light: No (HR+C0708)
Number of Pixels in Processed Spectrum: 2048
>>>>>Begin Processed Spectral Data<<<<<
188.76	-0.000
189.23	-0.000
189.70	-0.000
190.17	-0.000
190.64	-0.000
191.12	-0.000
191.59	-0.000
192.06	-0.000
192.53	-0.000
193.01	-0.000
193.48	-0.000
193.95	-0.000
194.42	-0.000
194.90	-0.000
195.37	-0.000
195.84	-0.000
196.31	-0.000
196.78	-0.000
197.26	-0.000
197.73	-0.000
198.20	-0.000
198.67	-0.000
199.14	-0.000
199.62	-0.000
200.09	-0.000
200.56	-0.000
201.03	-0.000
201.50	-0.000
201.97	-0.000
202.45	-0.000
202.92	-0.000
203.39	-0.000
203.86	-0.000
204.33	-0.000
204.80	-0.000
205.28	-0.000
205.75	-0.000
206.22	-0.000
206.69	-0.000
207.16	1.243
207.63	-0.000
208.11	-0.000
208.58	-0.000
209.05	-0.000
209.52	-0.000
209.99	-0.000
210.46	-0.000
210.93	-0.000
211.41	-0.000
211.88	-0.000
212.35	-0.000
212.82	-0.000
213.29	-0.000
213.76	-0.000
214.23	-0.000
214.70	-0.000
215.18	-0.000
215.65	1.128
216.12	-0.000
216.59	1.761
217.06	0.778
217.53	-0.000
218.00	-0.000
218.47	1.471
218.94	-0.000
219.41	1.195
219.89	1.062
220.36	0.958
220.83	2.229
221.30	-0.000
221.77	-0.000
222.24	2.870
222.71	-0.000
223.18	-0.000
223.65	1.185
224.12	1.756
224.59	-0.000
225.06	1.921
225.54	1.699
226.01	-0.000
226.48	-0.000
226.95	-0.000
227.42	-0.000
227.89	-0.000
228.36	-0.000
228.83	-0.000
229.30	-0.000
229.77	-0.000
230.24	2.321
230.71	2.402
231.18	2.397
231.65	-0.000
232.12	-0.000
232.59	-0.000
233.06	-0.000
233.53	-0.000
234.00	2.135
234.47	-0.000
234.94	-0.000
235.41	-0.000
235.88	2.441
236.35	-0.000
236.82	-0.000
237.29	-0.000
237.76	2.872
238.23	-0.000
238.70	-0.000
239.17	-0.000
239.64	-0.000
240.11	-0.000
240.58	2.334
241.05	2.804
241.52	3.692
241.99	2.670
242.46	2.715
242.93	-0.000
243.40	-0.000
243.87	-0.000
244.34	2.745
244.81	3.706
245.28	-0.000
245.75	3.015
246.22	3.610
246.69	-0.000
247.16	2.803
247.63	3.530
248.10	-0.000
248.57	-0.000
249.04	-0.000
249.51	2.775
249.98	-0.000
250.45	-0.000
250.92	2.910
251.39	2.608
251.85	2.446
252.32	2.242
252.79	2.148
253.26	1.966
253.73	1.818
254.20	1.688
254.67	1.606
255.14	1.537
255.61	1.453
256.08	1.375
256.55	1.318
257.02	1.273
257.49	1.206
257.95	1.178
258.42	1.135
258.89	1.103
259.36	1.070
259.83	1.043
260.30	1.021
260.77	0.987
261.24	0.970
261.71	0.948
262.17	0.925
262.64	0.907
263.11	0.888
263.58	0.871
264.05	0.857
264.52	0.841
264.99	0.829
265.46	0.817
265.92	0.799
266.39	0.788
266.86	0.781
267.33	0.770
267.80	0.758
268.27	0.746
268.74	0.740
269.20	0.724
269.67	0.718
270.14	0.712
270.61	0.700
271.08	0.692
271.55	0.682
272.01	0.679
272.48	0.672
272.95	0.660
273.42	0.661
273.89	0.657
274.36	0.646
274.82	0.642
275.29	0.638
275.76	0.631
276.23	0.626
276.70	0.623
277.16	0.620
277.63	0.616
278.10	0.608
278.57	0.605
279.04	0.606
279.50	0.601
279.97	0.597
280.44	0.597
280.91	0.596
281.38	0.589
281.84	0.589
282.31	0.587
282.78	0.588
283.25	0.586
283.72	0.582
284.18	0.583
284.65	0.583
285.12	0.580
285.59	0.580
286.05	0.578
286.52	0.578
286.99	0.579
287.46	0.579
287.92	0.579
288.39	0.576
288.86	0.579
289.33	0.579
289.79	0.576
290.26	0.573
290.73	0.576
291.20	0.570
291.66	0.568
292.13	0.563
292.60	0.563
293.07	0.559
293.53	0.556
294.00	0.546
294.47	0.544
294.93	0.540
295.40	0.534
295.87	0.528
296.34	0.521
296.80	0.512
297.27	0.501
297.74	0.497
298.20	0.491
298.67	0.482
299.14	0.474
299.60	0.466
300.07	0.460
300.54	0.454
301.01	0.444
301.47	0.437
301.94	0.433
302.41	0.422
302.87	0.414
303.34	0.408
303.81	0.403
304.27	0.395
304.74	0.387
305.21	0.380
305.67	0.375
306.14	0.369
306.61	0.366
307.07	0.357
307.54	0.356
308.01	0.349
308.47	0.342
308.94	0.340
309.40	0.334
309.87	0.333
310.34	0.327
310.80	0.322
311.27	0.320
311.74	0.317
312.20	0.312
312.67	0.314
313.13	0.307
313.60	0.305
314.07	0.305
314.53	0.300
315.00	0.293
315.47	0.299
315.93	0.298
316.40	0.293
316.86	0.291
317.33	0.289
317.80	0.290
318.26	0.288
318.73	0.285
319.19	0.286
319.66	0.279
320.13	0.278
320.59	0.279
321.06	0.280
321.52	0.277
321.99	0.279
322.45	0.273
322.92	0.275
323.39	0.272
323.85	0.270
324.32	0.271
324.78	0.267
325.25	0.262
325.71	0.264
326.18	0.261
326.64	0.259
327.11	0.255
327.58	0.258
328.04	0.260
328.51	0.253
328.97	0.257
329.44	0.250
329.90	0.251
330.37	0.248
330.83	0.249
331.30	0.247
331.76	0.244
332.23	0.243
332.69	0.242
333.16	0.241
333.62	0.238
334.09	0.234
334.56	0.233
335.02	0.231
335.49	0.229
335.95	0.224
336.42	0.225
336.88	0.221
337.35	0.220
337.81	0.218
338.28	0.220
338.74	0.218
339.20	0.221
339.67	0.221
340.13	0.219
340.60	0.217
341.06	0.213
341.53	0.209
341.99	0.210
342.46	0.208
342.92	0.206
343.39	0.205
343.85	0.204
344.32	0.202
344.78	0.200
345.25	0.206
345.71	0.203
346.17	0.205
346.64	0.207
347.10	0.201
347.57	0.199
348.03	0.194
348.50	0.195
348.96	0.196
349.43	0.196
349.89	0.199
350.35	0.196
350.82	0.193
351.28	0.197
351.75	0.193
352.21	0.197
352.67	0.192
353.14	0.195
353.60	0.187
354.07	0.190
354.53	0.188
355.00	0.186
355.46	0.183
355.92	0.183
356.39	0.187
356.85	0.183
357.31	0.177
357.78	0.176
358.24	0.179
358.71	0.181
359.17	0.179
359.63	0.175
360.10	0.176
360.56	0.173
361.03	0.174
361.49	0.176
361.95	0.174
362.42	0.174
362.88	0.173
363.34	0.174
363.81	0.172
364.27	0.176
364.73	0.175
365.20	0.170
365.66	0.170
366.12	0.172
366.59	0.173
367.05	0.172
367.51	0.171
367.98	0.169
368.44	0.171
368.90	0.170
369.37	0.172
369.83	0.170
370.29	0.166
370.76	0.167
371.22	0.165
371.68	0.166
372.15	0.166
372.61	0.165
373.07	0.164
373.54	0.165
374.00	0.162
374.46	0.163
374.92	0.164
375.39	0.163
375.85	0.163
376.31	0.164
376.78	0.164
377.24	0.162
377.70	0.165
378.16	0.162
378.63	0.160
379.09	0.162
379.55	0.163
380.01	0.164
380.48	0.163
380.94	0.162
381.40	0.160
381.87	0.165
382.33	0.162
382.79	0.159
383.25	0.160
383.72	0.162
384.18	0.161
384.64	0.160
385.10	0.159
385.56	0.156
386.03	0.160
386.49	0.158
386.95	0.157
387.41	0.158
387.88	0.156
388.34	0.156
388.80	0.159
389.26	0.155
389.72	0.156
390.19	0.154
390.65	0.154
391.11	0.155
391.57	0.155
392.04	0.155
392.50	0.155
392.96	0.152
393.42	0.156
393.88	0.156
394.34	0.154
394.81	0.152
395.27	0.153
395.73	0.152
396.19	0.153
396.65	0.150
397.12	0.151
397.58	0.151
398.04	0.151
398.50	0.152
398.96	0.153
399.42	0.155
399.89	0.155
400.35	0.155
400.81	0.148
401.27	0.151
401.73	0.151
402.19	0.152
402.65	0.143
403.12	0.148
403.58	0.147
404.04	0.144
404.50	0.145
404.96	0.145
405.42	0.146
405.88	0.144
406.34	0.149
406.81	0.147
407.27	0.144
407.73	0.145
408.19	0.146
408.65	0.143
409.11	0.142
409.57	0.142
410.03	0.145
410.49	0.146
410.96	0.142
411.42	0.141
411.88	0.142
412.34	0.138
412.80	0.139
413.26	0.142
413.72	0.141
414.18	0.138
414.64	0.140
415.10	0.141
415.56	0.143
416.02	0.140
416.48	0.139
416.95	0.140
417.41	0.137
417.87	0.139
418.33	0.139
418.79	0.135
419.25	0.138
419.71	0.137
420.17	0.137
420.63	0.134
421.09	0.136
421.55	0.134
422.01	0.136
422.47	0.140
422.93	0.140
423.39	0.138
423.85	0.135
424.31	0.134
424.77	0.136
425.23	0.137
425.69	0.140
426.15	0.139
426.61	0.135
427.07	0.134
427.53	0.134
427.99	0.138
428.45	0.137
428.91	0.134
429.37	0.132
429.83	0.132
430.29	0.134
430.75	0.138
431.21	0.140
431.67	0.141
432.13	0.136
432.59	0.134
433.05	0.134
433.51	0.132
433.97	0.131
434.43	0.139
434.89	0.139
435.35	0.133
435.81	0.136
436.27	0.137
436.73	0.133
437.19	0.137
437.65	0.131
438.11	0.136
438.57	0.136
439.03	0.132
439.48	0.137
439.94	0.135
440.40	0.134
440.86	0.133
441.32	0.133
441.78	0.131
442.24	0.134
442.70	0.134
443.16	0.133
443.62	0.133
444.08	0.131
444.54	0.132
444.99	0.133
445.45	0.129
445.91	0.130
446.37	0.133
446.83	0.132
447.29	0.131
447.75	0.131
448.21	0.134
448.67	0.133
449.12	0.131
449.58	0.129
450.04	0.131
450.50	0.129
450.96	0.128
451.42	0.130
451.88	0.132
452.34	0.130
452.79	0.130
453.25	0.129
453.71	0.129
454.17	0.129
454.63	0.133
455.09	0.130
455.55	0.131
456.00	0.129
456.46	0.130
456.92	0.131
457.38	0.127
457.84	0.130
458.30	0.130
458.75	0.128
459.21	0.129
459.67	0.128
460.13	0.130
460.59	0.129
461.04	0.127
461.50	0.127
461.96	0.128
462.42	0.127
462.88	0.126
463.33	0.126
463.79	0.129
464.25	0.128
464.71	0.129
465.17	0.126
465.62	0.128
466.08	0.130
466.54	0.131
467.00	0.127
467.46	0.128
467.91	0.130
468.37	0.127
468.83	0.128
469.29	0.130
469.74	0.127
470.20	0.130
470.66	0.128
471.12	0.128
471.57	0.130
472.03	0.128
472.49	0.129
472.95	0.129
473.40	0.129
473.86	0.129
474.32	0.129
474.78	0.128
475.23	0.130
475.69	0.129
476.15	0.129
476.60	0.130
477.06	0.129
477.52	0.128
477.98	0.128
478.43	0.129
478.89	0.130
479.35	0.131
479.80	0.130
480.26	0.125
480.72	0.128
481.18	0.129
481.63	0.128
482.09	0.127
482.55	0.126
483.00	0.125
483.46	0.126
483.92	0.125
484.37	0.127
484.83	0.125
485.29	0.126
485.74	0.127
486.20	0.126
486.66	0.127
487.11	0.127
487.57	0.126
488.03	0.126
488.48	0.128
488.94	0.127
489.40	0.128
489.85	0.128
490.31	0.125
490.77	0.127
491.22	0.129
491.68	0.126
492.13	0.126
492.59	0.128
493.05	0.125
493.50	0.125
493.96	0.126
494.42	0.128
494.87	0.127
495.33	0.125
495.78	0.127
496.24	0.127
496.70	0.127
497.15	0.126
497.61	0.128
498.06	0.126
498.52	0.126
498.98	0.126
499.43	0.126
499.89	0.127
500.34	0.126
500.80	0.124
501.25	0.125
501.71	0.124
502.17	0.124
502.62	0.122
503.08	0.123
503.53	0.125
503.99	0.125
504.44	0.125
504.90	0.122
505.36	0.123
505.81	0.125
506.27	0.122
506.72	0.123
507.18	0.123
507.63	0.123
508.09	0.125
508.54	0.122
509.00	0.125
509.45	0.124
509.91	0.123
510.36	0.123
510.82	0.127
511.27	0.122
511.73	0.123
512.19	0.126
512.64	0.123
513.10	0.124
513.55	0.124
514.01	0.123
514.46	0.126
514.92	0.124
515.37	0.123
515.83	0.123
516.28	0.124
516.73	0.123
517.19	0.122
517.64	0.123
518.10	0.123
518.55	0.123
519.01	0.123
519.46	0.120
519.92	0.120
520.37	0.122
520.83	0.125
521.28	0.121
521.74	0.121
522.19	0.122
522.65	0.121
523.10	0.121
523.55	0.123
524.01	0.122
524.46	0.121
524.92	0.123
525.37	0.122
525.83	0.122
526.28	0.123
526.73	0.123
527.19	0.122
527.64	0.121
528.10	0.122
528.55	0.122
529.01	0.123
529.46	0.122
529.91	0.123
530.37	0.122
530.82	0.121
531.28	0.121
531.73	0.121
532.18	0.124
532.64	0.120
533.09	0.123
533.54	0.123
534.00	0.126
534.45	0.125
534.91	0.123
535.36	0.123
535.81	0.122
536.27	0.122
536.72	0.121
537.17	0.123
537.63	0.124
538.08	0.123
538.54	0.123
538.99	0.125
539.44	0.125
539.90	0.125
540.35	0.125
540.80	0.124
541.26	0.125
541.71	0.128
542.16	0.126
542.62	0.129
543.07	0.125
543.52	0.124
543.98	0.126
544.43	0.127
544.88	0.125
545.34	0.128
545.79	0.127
546.24	0.128
546.69	0.128
547.15	0.129
547.60	0.128
548.05	0.128
548.51	0.129
548.96	0.129
549.41	0.128
549.86	0.129
550.32	0.131
550.77	0.133
551.22	0.129
551.68	0.129
552.13	0.132
552.58	0.131
553.03	0.133
553.49	0.132
553.94	0.132
554.39	0.133
554.84	0.136
555.30	0.136
555.75	0.135
556.20	0.135
556.65	0.137
557.11	0.136
557.56	0.137
558.01	0.138
558.46	0.138
558.92	0.140
559.37	0.142
559.82	0.138
560.27	0.140
560.72	0.140
561.18	0.140
561.63	0.141
562.08	0.139
562.53	0.141
562.99	0.142
563.44	0.144
563.89	0.143
564.34	0.143
564.79	0.145
565.25	0.146
565.70	0.146
566.15	0.148
566.60	0.146
567.05	0.149
567.50	0.148
567.96	0.149
568.41	0.151
568.86	0.149
569.31	0.149
569.76	0.151
570.21	0.153
570.67	0.151
571.12	0.153
571.57	0.153
572.02	0.156
572.47	0.154
572.92	0.153
573.37	0.159
573.83	0.158
574.28	0.157
574.73	0.158
575.18	0.158
575.63	0.160
576.08	0.161
576.53	0.160
576.98	0.161
577.44	0.164
577.89	0.164
578.34	0.167
578.79	0.164
579.24	0.166
579.69	0.167
580.14	0.169
580.59	0.171
581.04	0.169
581.49	0.171
581.95	0.172
582.40	0.173
582.85	0.176
583.30	0.176
583.75	0.180
584.20	0.180
584.65	0.182
585.10	0.183
585.55	0.185
586.00	0.185
586.45	0.185
586.90	0.187
587.35	0.188
587.80	0.191
588.25	0.191
588.71	0.194
589.16	0.196
589.61	0.196
590.06	0.200
590.51	0.199
590.96	0.202
591.41	0.203
591.86	0.205
592.31	0.205
592.76	0.207
593.21	0.209
593.66	0.211
594.11	0.214
594.56	0.214
595.01	0.217
595.46	0.215
595.91	0.218
596.36	0.223
596.81	0.224
597.26	0.225
597.71	0.227
598.16	0.229
598.61	0.232
599.06	0.233
599.51	0.234
599.96	0.235
600.41	0.236
600.86	0.242
601.31	0.242
601.76	0.243
602.21	0.247
602.65	0.249
603.10	0.247
603.55	0.249
604.00	0.252
604.45	0.254
604.90	0.254
605.35	0.259
605.80	0.258
606.25	0.259
606.70	0.263
607.15	0.262
607.60	0.264
608.05	0.263
608.50	0.266
608.95	0.268
609.39	0.269
609.84	0.270
610.29	0.272
610.74	0.272
611.19	0.273
611.64	0.277
612.09	0.276
612.54	0.276
612.99	0.278
613.44	0.277
613.88	0.280
614.33	0.283
614.78	0.282
615.23	0.283
615.68	0.283
616.13	0.283
616.58	0.284
617.03	0.284
617.47	0.285
617.92	0.286
618.37	0.288
618.82	0.286
619.27	0.286
619.72	0.288
620.17	0.291
620.61	0.288
621.06	0.289
621.51	0.288
621.96	0.291
622.41	0.291
622.86	0.291
623.30	0.295
623.75	0.292
624.20	0.295
624.65	0.296
625.10	0.297
625.54	0.295
625.99	0.295
626.44	0.299
626.89	0.298
627.34	0.300
627.78	0.301
628.23	0.302
628.68	0.303
629.13	0.305
629.58	0.307
630.02	0.309
630.47	0.308
630.92	0.309
631.37	0.313
631.81	0.312
632.26	0.314
632.71	0.317
633.16	0.318
633.61	0.318
634.05	0.320
634.50	0.322
634.95	0.327
635.40	0.327
635.84	0.330
636.29	0.332
636.74	0.334
637.18	0.336
637.63	0.336
638.08	0.340
638.53	0.342
638.97	0.343
639.42	0.348
639.87	0.350
640.32	0.353
640.76	0.353
641.21	0.356
641.66	0.358
642.10	0.363
642.55	0.365
643.00	0.368
643.44	0.370
643.89	0.373
644.34	0.376
644.79	0.378
645.23	0.383
645.68	0.384
646.13	0.389
646.57	0.393
647.02	0.393
647.47	0.398
647.91	0.398
648.36	0.400
648.81	0.405
649.25	0.409
649.70	0.410
650.15	0.413
650.59	0.418
651.04	0.418
651.48	0.421
651.93	0.425
652.38	0.427
652.82	0.431
653.27	0.430
653.72	0.435
654.16	0.437
654.61	0.438
655.06	0.439
655.50	0.443
655.95	0.439
656.39	0.441
656.84	0.452
657.29	0.455
657.73	0.453
658.18	0.451
658.62	0.456
659.07	0.458
659.52	0.460
659.96	0.459
660.41	0.462
660.85	0.464
661.30	0.464
661.74	0.466
662.19	0.470
662.64	0.467
663.08	0.466
663.53	0.468
663.97	0.467
664.42	0.466
664.86	0.469
665.31	0.469
665.75	0.467
666.20	0.464
666.65	0.465
667.09	0.465
667.54	0.465
667.98	0.459
668.43	0.460
668.87	0.457
669.32	0.455
669.76	0.451
670.21	0.450
670.65	0.448
671.10	0.440
671.54	0.440
671.99	0.437
672.43	0.429
672.88	0.424
673.32	0.421
673.77	0.416
674.21	0.410
674.66	0.403
675.10	0.397
675.55	0.389
675.99	0.383
676.44	0.379
676.88	0.375
677.33	0.366
677.77	0.358
678.22	0.352
678.66	0.343
679.11	0.336
679.55	0.330
679.99	0.322
680.44	0.316
680.88	0.306
681.33	0.300
681.77	0.294
682.22	0.284
682.66	0.277
683.11	0.270
683.55	0.265
683.99	0.259
684.44	0.252
684.88	0.245
685.33	0.238
685.77	0.231
686.21	0.226
686.66	0.218
687.10	0.212
687.55	0.208
687.99	0.203
688.44	0.197
688.88	0.190
689.32	0.187
689.77	0.183
690.21	0.179
690.65	0.174
691.10	0.170
691.54	0.166
691.99	0.164
692.43	0.157
692.87	0.156
693.32	0.150
693.76	0.147
694.20	0.143
694.65	0.142
695.09	0.137
695.53	0.134
695.98	0.133
696.42	0.131
696.86	0.130
697.31	0.128
697.75	0.124
698.19	0.122
698.64	0.119
699.08	0.118
699.52	0.116
699.97	0.114
700.41	0.114
700.85	0.111
701.30	0.107
701.74	0.109
702.18	0.105
702.63	0.106
703.07	0.103
703.51	0.101
703.96	0.104
704.40	0.103
704.84	0.100
705.28	0.099
705.73	0.099
706.17	0.097
706.61	0.099
707.06	0.096
707.50	0.096
707.94	0.096
708.38	0.094
708.83	0.094
709.27	0.094
709.71	0.095
710.15	0.092
710.60	0.094
711.04	0.090
711.48	0.093
711.92	0.091
712.37	0.090
712.81	0.091
713.25	0.091
713.69	0.090
714.13	0.090
714.58	0.090
715.02	0.089
715.46	0.088
715.90	0.089
716.35	0.088
716.79	0.088
717.23	0.089
717.67	0.087
718.11	0.085
718.56	0.086
719.00	0.090
719.44	0.087
719.88	0.089
720.32	0.089
720.76	0.086
721.21	0.089
721.65	0.089
722.09	0.088
722.53	0.087
722.97	0.086
723.41	0.085
723.86	0.087
724.30	0.087
724.74	0.089
725.18	0.086
725.62	0.085
726.06	0.088
726.50	0.088
726.95	0.088
727.39	0.088
727.83	0.087
728.27	0.087
728.71	0.086
729.15	0.089
729.59	0.085
730.03	0.085
730.48	0.086
730.92	0.089
731.36	0.086
731.80	0.087
732.24	0.090
732.68	0.088
733.12	0.089
733.56	0.090
734.00	0.092
734.44	0.089
734.89	0.089
735.33	0.088
735.77	0.089
736.21	0.089
736.65	0.090
737.09	0.092
737.53	0.090
737.97	0.089
738.41	0.091
738.85	0.090
739.29	0.087
739.73	0.089
740.17	0.088
740.61	0.089
741.05	0.090
741.49	0.090
741.93	0.089
742.37	0.088
742.81	0.090
743.26	0.090
743.70	0.089
744.14	0.091
744.58	0.089
745.02	0.089
745.46	0.090
745.90	0.088
746.34	0.088
746.78	0.091
747.22	0.089
747.66	0.087
748.10	0.089
748.54	0.088
748.98	0.089
749.42	0.091
749.86	0.090
750.29	0.091
750.73	0.092
751.17	0.090
751.61	0.089
752.05	0.088
752.49	0.089
752.93	0.090
753.37	0.091
753.81	0.088
754.25	0.090
754.69	0.091
755.13	0.093
755.57	0.088
756.01	0.085
756.45	0.087
756.89	0.089
757.33	0.087
757.77	0.090
758.21	0.089
758.64	0.086
759.08	0.087
759.52	0.088
759.96	0.089
760.40	0.087
760.84	0.086
761.28	0.086
761.72	0.089
762.16	0.085
762.60	0.088
763.03	0.088
763.47	0.088
763.91	0.087
764.35	0.087
764.79	0.085
765.23	0.090
765.67	0.088
766.11	0.089
766.54	0.087
766.98	0.084
767.42	0.088
767.86	0.088
768.30	0.089
768.74	0.086
769.17	0.089
769.61	0.087
770.05	0.087
770.49	0.088
770.93	0.088
771.37	0.088
771.80	0.085
772.24	0.084
772.68	0.088
773.12	0.085
773.56	0.087
774.00	0.087
774.43	0.086
774.87	0.085
775.31	0.087
775.75	0.086
776.19	0.086
776.62	0.088
777.06	0.087
777.50	0.089
777.94	0.086
778.37	0.089
778.81	0.085
779.25	0.086
779.69	0.087
780.13	0.086
780.56	0.083
781.00	0.084
781.44	0.085
781.88	0.085
782.31	0.083
782.75	0.082
783.19	0.085
783.63	0.086
784.06	0.086
784.50	0.087
784.94	0.089
785.37	0.085
785.81	0.085
786.25	0.087
786.69	0.088
787.12	0.090
787.56	0.089
788.00	0.088
788.43	0.086
788.87	0.083
789.31	0.090
789.75	0.086
790.18	0.088
790.62	0.084
791.06	0.086
791.49	0.086
791.93	0.086
792.37	0.084
792.80	0.090
793.24	0.084
793.68	0.085
794.11	0.087
794.55	0.086
794.99	0.085
795.42	0.086
795.86	0.088
796.30	0.089
796.73	0.086
797.17	0.084
797.61	0.087
798.04	0.089
798.48	0.086
798.91	0.088
799.35	0.085
799.79	0.084
800.22	0.087
800.66	0.079
801.10	0.089
801.53	0.089
801.97	0.086
802.40	0.083
802.84	0.086
803.28	0.087
803.71	0.082
804.15	0.088
804.58	0.086
805.02	0.088
805.46	0.084
805.89	0.085
806.33	0.086
806.76	0.086
807.20	0.086
807.63	0.086
808.07	0.084
808.51	0.087
808.94	0.085
809.38	0.083
809.81	0.088
810.25	0.086
810.68	0.088
811.12	0.085
811.55	0.092
811.99	0.090
812.42	0.085
812.86	0.087
813.29	0.087
813.73	0.090
814.17	0.080
814.60	0.086
815.04	0.084
815.47	0.087
815.91	0.085
816.34	0.085
816.78	0.085
817.21	0.090
817.65	0.087
818.08	0.083
818.52	0.087
818.95	0.086
819.39	0.092
819.82	0.087
820.25	0.088
820.69	0.090
821.12	0.092
821.56	0.085
821.99	0.089
822.43	0.086
822.86	0.089
823.30	0.085
823.73	0.084
824.17	0.089
824.60	0.088
825.04	0.089
825.47	0.091
825.90	0.081
826.34	0.092
826.77	0.090
827.21	0.087
827.64	0.091
828.08	0.095
828.51	0.088
828.94	0.091
829.38	0.092
829.81	0.093
830.25	0.092
830.68	0.091
831.11	0.094
831.55	0.094
831.98	0.096
832.42	0.093
832.85	0.095
833.28	0.091
833.72	0.095
834.15	0.098
834.58	0.090
835.02	0.094
835.45	0.097
835.88	0.094
836.32	0.098
836.75	0.097
837.19	0.095
837.62	0.094
838.05	0.095
838.49	0.094
838.92	0.095
839.35	0.096
839.79	0.091
840.22	0.095
840.65	0.095
841.09	0.097
841.52	0.099
841.95	0.093
842.39	0.093
842.82	0.100
843.25	0.097
843.68	0.094
844.12	0.099
844.55	0.093
844.98	0.099
845.42	0.096
845.85	0.094
846.28	0.097
846.71	0.089
847.15	0.088
847.58	0.102
848.01	0.099
848.45	0.092
848.88	0.096
849.31	0.092
849.74	0.095
850.18	0.094
850.61	0.100
851.04	0.099
851.47	0.094
851.91	0.096
852.34	0.096
852.77	0.094
853.20	0.096
853.64	0.094
854.07	0.097
854.50	0.100
854.93	0.097
855.36	0.094
855.80	0.100
856.23	0.101
856.66	0.101
857.09	0.103
857.52	0.099
857.96	0.099
858.39	0.101
858.82	0.100
859.25	0.102
859.68	0.096
860.12	0.097
860.55	0.100
860.98	0.100
861.41	0.100
861.84	0.103
862.27	0.101
862.71	0.103
863.14	0.104
863.57	0.103
864.00	0.101
864.43	0.093
864.86	0.108
865.30	0.101
865.73	0.096
866.16	0.099
866.59	0.108
867.02	0.100
867.45	0.099
867.88	0.101
868.31	0.103
868.75	0.098
869.18	0.098
869.61	0.105
870.04	0.104
870.47	0.101
870.90	0.105
871.33	0.109
871.76	0.101
872.19	0.097
872.62	0.107
873.06	0.104
873.49	0.104
873.92	0.107
874.35	0.107
874.78	0.110
875.21	0.105
875.64	0.109
876.07	0.105
876.50	0.099
876.93	0.103
877.36	0.110
877.79	0.102
878.22	0.100
878.65	0.108
879.08	0.107
879.51	0.101
879.94	0.103
880.37	0.104
880.80	0.106
881.23	0.110
881.67	0.103
882.10	0.107
882.53	0.107
882.96	0.108
883.39	0.111
883.82	0.109
884.25	0.107
884.68	0.106
885.11	0.108
885.54	0.111
885.97	0.103
886.39	0.104
886.82	0.109
887.25	0.108
887.68	0.109
888.11	0.106
888.54	0.107
888.97	0.105
889.40	0.107
889.83	0.110
890.26	0.108
890.69	0.105
891.12	0.107
891.55	0.115
891.98	0.107
892.41	0.105
892.84	0.109
893.27	0.110
893.70	0.104
894.13	0.104
894.56	0.112
894.98	0.107
895.41	0.108
895.84	0.116
896.27	0.105
896.70	0.105
897.13	0.107
897.56	0.113
897.99	0.110
898.42	0.114
898.85	0.114
899.27	0.110
899.70	0.111
900.13	0.114
900.56	0.113
900.99	0.109
901.42	0.108
901.85	0.113
902.28	0.116
902.70	0.110
903.13	0.108
903.56	0.115
903.99	0.107
904.42	0.111
904.85	0.111
905.27	0.111
905.70	0.115
906.13	0.109
906.56	0.114
906.99	0.112
907.42	0.107
907.84	0.113
908.27	0.117
908.70	0.109
909.13	0.110
909.56	0.110
909.98	0.114
910.41	0.112
910.84	0.105
911.27	0.107
911.70	0.107
912.12	0.109
912.55	0.108
912.98	0.111
913.41	0.107
913.84	0.104
914.26	0.109
914.69	0.108
915.12	0.115
915.55	0.104
915.97	0.107
916.40	0.110
916.83	0.108
917.26	0.111
917.68	0.113
918.11	0.113
918.54	0.112
918.97	0.110
919.39	0.112
919.82	0.114
920.25	0.111
920.67	0.109
921.10	0.113
921.53	0.110
921.96	0.108
922.38	0.111
922.81	0.112
923.24	0.114
923.66	0.113
924.09	0.114
924.52	0.118
924.94	0.117
925.37	0.118
925.80	0.116
926.22	0.120
926.65	0.118
927.08	0.121
927.50	0.119
927.93	0.118
928.36	0.119
928.78	0.123
929.21	0.122
929.64	0.125
930.06	0.127
930.49	0.131
930.92	0.125
931.34	0.128
931.77	0.125
932.20	0.128
932.62	0.126
933.05	0.124
933.47	0.127
933.90	0.129
934.33	0.134
934.75	0.132
935.18	0.135
935.61	0.140
936.03	0.139
936.46	0.138
936.88	0.141
937.31	0.144
937.73	0.152
938.16	0.149
938.59	0.148
939.01	0.160
939.44	0.156
939.86	0.154
940.29	0.162
940.71	0.161
941.14	0.164
941.57	0.161
941.99	0.166
942.42	0.173
942.84	0.168
943.27	0.170
943.69	0.177
944.12	0.175
944.54	0.181
944.97	0.178
945.39	0.182
945.82	0.180
946.24	0.182
946.67	0.189
947.09	0.187
947.52	0.184
947.94	0.192
948.37	0.191
948.79	0.198
949.22	0.198
949.64	0.200
950.07	0.206
950.49	0.212
950.92	0.207
951.34	0.210
951.77	0.217
952.19	0.208
952.62	0.215
953.04	0.225
953.47	0.224
953.89	0.226
954.32	0.223
954.74	0.237
955.17	0.232
955.59	0.237
956.01	0.241
956.44	0.245
956.86	0.241
957.29	0.246
957.71	0.258
958.14	0.250
958.56	0.254
958.98	0.259
959.41	0.258
959.83	0.260
960.26	0.264
960.68	0.263
961.10	0.271
961.53	0.266
961.95	0.268
962.38	0.277
962.80	0.270
963.22	0.272
963.65	0.273
964.07	0.270
964.50	0.270
964.92	0.277
965.34	0.276
965.77	0.276
966.19	0.274
966.61	0.278
967.04	0.275
967.46	0.282
967.88	0.271
968.31	0.276
968.73	0.276
969.15	0.276
969.58	0.283
970.00	0.275
970.42	0.284
970.85	0.278
971.27	0.282
971.69	0.282
972.12	0.276
972.54	0.275
972.96	0.287
973.39	0.283
973.81	0.287
974.23	0.283
974.65	0.284
975.08	0.284
975.50	0.278
975.92	0.282
976.35	0.284
976.77	0.283
977.19	0.282
977.61	0.286
978.04	0.282
978.46	0.280
978.88	0.282
979.30	0.287
979.73	0.281
980.15	0.283
980.57	0.283
980.99	0.288
981.42	0.278
981.84	0.285
982.26	0.291
982.68	0.281
983.11	0.283
983.53	0.287
983.95	0.278
984.37	0.278
984.79	0.278
985.22	0.278
985.64	0.283
986.06	0.272
986.48	0.280
986.90	0.275
987.33	0.273
987.75	0.273
988.17	0.287
988.59	0.272
989.01	0.270
989.43	0.269
989.86	0.274
990.28	0.270
990.70	0.272
991.12	0.275
991.54	0.273
991.96	0.274
992.39	0.263
992.81	0.267
993.23	0.266
993.65	0.264
994.07	0.270
994.49	0.270
994.91	0.262
995.34	0.264
995.76	0.263
996.18	0.267
996.60	0.256
997.02	0.260
997.44	0.268
997.86	0.263
998.28	0.255
998.70	0.267
999.12	0.255
999.55	0.261
999.97	0.262
1000.39	0.257
1000.81	0.256
1001.23	0.245
1001.65	0.265
1002.07	0.257
1002.49	0.252
1002.91	0.251
1003.33	0.252
1003.75	0.246
1004.17	0.251
1004.59	0.259
1005.01	0.252
1005.43	0.241
1005.85	0.250
1006.28	0.247
1006.70	0.247
1007.12	0.244
1007.54	0.240
1007.96	0.246
1008.38	0.243
1008.80	0.246
1009.22	0.244
1009.64	0.245
1010.06	0.247
1010.48	0.238
1010.90	0.244
1011.32	0.237
1011.74	0.235
1012.16	0.235
1012.58	0.240
1013.00	0.231
1013.42	0.229
1013.84	0.241
1014.26	0.231
1014.67	0.239
1015.09	0.228
1015.51	0.231
1015.93	0.231
1016.35	0.223
1016.77	0.234
1017.19	0.230
1017.61	0.226
1018.03	0.215
1018.45	0.225
1018.87	0.222
1019.29	0.217
1019.71	0.218
1020.13	0.223
1020.55	0.228
1020.97	0.215
1021.38	0.219
1021.80	0.211
1022.22	0.215
1022.64	0.210
1023.06	0.230
1023.48	0.221
1023.90	0.216
1024.32	0.203
1024.74	0.201
1025.15	0.218
1025.57	0.220
1025.99	0.223
1026.41	0.212
1026.83	0.215
1027.25	0.210
1027.67	0.217
1028.08	0.202
1028.50	0.212
1028.92	0.209
1029.34	0.211
1029.76	0.213
1030.18	0.200
1030.60	0.203
1031.01	0.209
1031.43	0.198
1031.85	0.207
1032.27	0.213
1032.69	0.205
1033.10	0.207
1033.52	0.211
1033.94	0.197
1034.36	0.200
1034.78	0.208
1035.19	0.210
1035.61	0.206
1036.03	0.201
1036.45	0.199
1036.87	0.200
1037.28	0.195
1037.70	0.183
1038.12	0.198
1038.54	0.198
1038.95	0.198
1039.37	0.196
1039.79	0.189
1040.21	0.191
1040.62	0.171
1041.04	0.195
1041.46	0.196
1041.88	0.197
1042.29	0.192
1042.71	0.217
1043.13	0.192
1043.55	0.185
1043.96	0.202
1044.38	0.198
1044.80	0.214
1045.21	0.188
1045.63	0.182
1046.05	0.208
1046.47	0.184
1046.88	0.187
1047.30	0.192
1047.72	0.198
1048.13	0.169
1048.55	0.222
1048.97	0.219
1049.38	0.185
1049.80	0.194
1050.22	0.191
1050.63	0.214
1051.05	0.171
1051.47	0.213
1051.88	0.196
1052.30	0.201
1052.72	0.175
1053.13	0.214
1053.55	0.207
1053.97	0.203
1054.38	0.214
1054.80	0.197
1055.21	0.198
1055.63	0.182
1056.05	0.180
1056.46	0.233
1056.88	0.238
1057.29	0.201
1057.71	0.236
1058.13	0.233
1058.54	0.210
1058.96	0.223
1059.37	0.270
1059.79	0.256
1060.21	0.230
1060.62	0.229
1061.04	0.283
1061.45	0.250
1061.87	0.246
1062.28	0.288
1062.70	0.271
1063.12	0.264
1063.53	0.242
1063.95	0.314
1064.36	0.278
1064.78	0.260
1065.19	0.286
1065.61	0.370
1066.02	0.247
1066.44	0.268
1066.85	0.344
1067.27	0.404
1067.68	0.272
1068.10	0.407
1068.51	0.393
1068.93	0.337
1069.35	0.433
1069.76	0.515
1070.17	0.555
1070.59	0.391
1071.00	0.464
1071.42	0.508
1071.83	0.415
1072.25	0.645
1072.66	0.721
1073.08	2.343
1073.49	0.518
1073.91	0.495
1074.32	1.083
1074.74	0.828
1075.15	0.592
1075.57	0.733
1075.98	1.307
1076.40	0.900
1076.81	0.971
1077.22	-0.000
1077.64	1.306
1078.05	-0.000
1078.47	-0.000
1078.88	-0.000
1079.30	-0.000
1079.71	1.967
1080.12	-0.000
1080.54	-0.000
1080.95	-0.000
1081.37	-0.000
1081.78	-0.000
1082.19	-0.000
1082.61	-0.000
1083.02	-0.000
1083.44	-0.000
1083.85	-0.000
1084.26	-0.000
1084.68	-0.000
1085.09	-0.000
1085.50	-0.000
1085.92	-0.000
1086.33	-0.000
1086.74	-0.000
1087.16	-0.000
1087.57	-0.000
1087.98	-0.000
1088.40	-0.000
1088.81	-0.000
1089.22	-0.000
1089.64	-0.000
1090.05	-0.000
1090.46	-0.000
1090.88	-0.000
1091.29	-0.000
1091.70	-0.000
1092.12	-0.000
1092.53	-0.000
1092.94	-0.000
1093.36	-0.000
1093.77	-0.000
1094.18	-0.000
1094.59	-0.000
1095.01	-0.000
1095.42	-0.000
1095.83	-0.000
1096.25	-0.000
1096.66	-0.000
1097.07	-0.000
1097.48	-0.000
1097.90	-0.000
1098.31	-0.000
1098.72	-0.000
1099.13	-0.000
>>>>>End Processed Spectral Data<<<<<
