SpectraSuite Data File
++++++++++++++++++++++++++++++++++++
Date: Wed May 04 13:47:58 CEST 2016
User: spectrasuite
Dark Spectrum Present: Yes
Reference Spectrum Present: Yes
Number of Sampled Component Spectra: 1
Spectrometers: HR+C0708
Integration Time (usec): 1000 (HR+C0708)
Spectra Averaged: 10 (HR+C0708)
Boxcar Smoothing: 0 (HR+C0708)
Correct for Electrical Dark: No (HR+C0708)
Strobe/Lamp Enabled: No (HR+C0708)
Correct for Detector Non-linearity: No (HR+C0708)
Correct for Stray Light: No (HR+C0708)
Number of Pixels in Processed Spectrum: 2048
>>>>>Begin Processed Spectral Data<<<<<
188.76	0.959
189.23	-0.000
189.70	0.511
190.17	-0.000
190.64	-0.000
191.12	0.101
191.59	-0.000
192.06	-0.000
192.53	-0.000
193.01	0.825
193.48	0.304
193.95	-0.000
194.42	-0.000
194.90	0.595
195.37	-0.000
195.84	-0.000
196.31	0.420
196.78	-0.000
197.26	-0.000
197.73	-0.000
198.20	-0.000
198.67	-0.000
199.14	-0.000
199.62	-0.000
200.09	-0.000
200.56	-0.000
201.03	0.763
201.50	0.330
201.97	1.071
202.45	1.427
202.92	0.442
203.39	0.839
203.86	0.661
204.33	0.708
204.80	0.603
205.28	0.485
205.75	1.841
206.22	0.464
206.69	0.510
207.16	0.667
207.63	0.773
208.11	0.353
208.58	0.870
209.05	0.876
209.52	0.765
209.99	0.496
210.46	0.541
210.93	0.779
211.41	0.387
211.88	0.393
212.35	0.827
212.82	0.927
213.29	0.469
213.76	0.875
214.23	0.881
214.70	0.538
215.18	0.650
215.65	0.266
216.12	0.720
216.59	0.544
217.06	0.399
217.53	0.951
218.00	0.605
218.47	0.522
218.94	0.747
219.41	0.700
219.89	0.479
220.36	0.513
220.83	0.609
221.30	1.211
221.77	0.912
222.24	0.652
222.71	1.348
223.18	0.579
223.65	0.539
224.12	0.978
224.59	0.633
225.06	0.720
225.54	0.804
226.01	1.014
226.48	0.999
226.95	1.105
227.42	0.834
227.89	2.861
228.36	0.959
228.83	0.999
229.30	1.556
229.77	1.283
230.24	1.072
230.71	1.345
231.18	1.318
231.65	1.599
232.12	1.904
232.59	1.494
233.06	2.197
233.53	1.754
234.00	1.533
234.47	2.506
234.94	1.803
235.41	1.567
235.88	2.005
236.35	1.969
236.82	1.900
237.29	2.102
237.76	2.111
238.23	2.657
238.70	2.182
239.17	1.865
239.64	3.201
240.11	2.246
240.58	2.043
241.05	2.438
241.52	2.475
241.99	2.038
242.46	2.348
242.93	2.227
243.40	2.613
243.87	2.444
244.34	2.078
244.81	2.789
245.28	2.287
245.75	2.204
246.22	2.688
246.69	2.798
247.16	2.249
247.63	2.824
248.10	2.459
248.57	2.818
249.04	2.458
249.51	2.271
249.98	3.861
250.45	2.397
250.92	2.337
251.39	2.461
251.85	2.315
252.32	1.994
252.79	2.122
253.26	1.994
253.73	1.880
254.20	1.833
254.67	1.705
255.14	1.710
255.61	1.596
256.08	1.526
256.55	1.503
257.02	1.437
257.49	1.367
257.95	1.349
258.42	1.308
258.89	1.262
259.36	1.243
259.83	1.221
260.30	1.202
260.77	1.159
261.24	1.138
261.71	1.131
262.17	1.103
262.64	1.083
263.11	1.069
263.58	1.049
264.05	1.033
264.52	1.020
264.99	1.003
265.46	0.988
265.92	0.975
266.39	0.958
266.86	0.960
267.33	0.945
267.80	0.931
268.27	0.923
268.74	0.908
269.20	0.897
269.67	0.896
270.14	0.889
270.61	0.881
271.08	0.873
271.55	0.860
272.01	0.856
272.48	0.844
272.95	0.832
273.42	0.837
273.89	0.825
274.36	0.814
274.82	0.811
275.29	0.806
275.76	0.806
276.23	0.805
276.70	0.797
277.16	0.792
277.63	0.787
278.10	0.779
278.57	0.784
279.04	0.779
279.50	0.772
279.97	0.776
280.44	0.768
280.91	0.768
281.38	0.768
281.84	0.768
282.31	0.758
282.78	0.763
283.25	0.765
283.72	0.768
284.18	0.756
284.65	0.760
285.12	0.764
285.59	0.755
286.05	0.754
286.52	0.765
286.99	0.758
287.46	0.759
287.92	0.760
288.39	0.756
288.86	0.761
289.33	0.757
289.79	0.755
290.26	0.758
290.73	0.752
291.20	0.752
291.66	0.753
292.13	0.754
292.60	0.743
293.07	0.744
293.53	0.734
294.00	0.732
294.47	0.726
294.93	0.718
295.40	0.714
295.87	0.707
296.34	0.698
296.80	0.694
297.27	0.677
297.74	0.675
298.20	0.667
298.67	0.656
299.14	0.646
299.60	0.638
300.07	0.629
300.54	0.626
301.01	0.616
301.47	0.604
301.94	0.596
302.41	0.583
302.87	0.575
303.34	0.570
303.81	0.560
304.27	0.552
304.74	0.546
305.21	0.535
305.67	0.532
306.14	0.524
306.61	0.518
307.07	0.510
307.54	0.504
308.01	0.495
308.47	0.490
308.94	0.487
309.40	0.485
309.87	0.482
310.34	0.473
310.80	0.470
311.27	0.466
311.74	0.460
312.20	0.460
312.67	0.452
313.13	0.451
313.60	0.448
314.07	0.443
314.53	0.442
315.00	0.438
315.47	0.439
315.93	0.438
316.40	0.430
316.86	0.429
317.33	0.427
317.80	0.427
318.26	0.424
318.73	0.425
319.19	0.423
319.66	0.413
320.13	0.415
320.59	0.411
321.06	0.414
321.52	0.409
321.99	0.408
322.45	0.406
322.92	0.403
323.39	0.403
323.85	0.400
324.32	0.397
324.78	0.396
325.25	0.395
325.71	0.392
326.18	0.388
326.64	0.390
327.11	0.381
327.58	0.385
328.04	0.384
328.51	0.381
328.97	0.380
329.44	0.377
329.90	0.372
330.37	0.373
330.83	0.370
331.30	0.373
331.76	0.366
332.23	0.364
332.69	0.361
333.16	0.359
333.62	0.356
334.09	0.356
334.56	0.350
335.02	0.347
335.49	0.344
335.95	0.341
336.42	0.337
336.88	0.336
337.35	0.336
337.81	0.334
338.28	0.337
338.74	0.335
339.20	0.335
339.67	0.335
340.13	0.334
340.60	0.331
341.06	0.327
341.53	0.322
341.99	0.322
342.46	0.320
342.92	0.317
343.39	0.319
343.85	0.313
344.32	0.314
344.78	0.313
345.25	0.315
345.71	0.315
346.17	0.315
346.64	0.316
347.10	0.313
347.57	0.304
348.03	0.301
348.50	0.302
348.96	0.300
349.43	0.299
349.89	0.302
350.35	0.297
350.82	0.292
351.28	0.293
351.75	0.290
352.21	0.295
352.67	0.286
353.14	0.283
353.60	0.279
354.07	0.278
354.53	0.274
355.00	0.273
355.46	0.269
355.92	0.265
356.39	0.265
356.85	0.255
357.31	0.252
357.78	0.249
358.24	0.247
358.71	0.246
359.17	0.240
359.63	0.233
360.10	0.231
360.56	0.225
361.03	0.221
361.49	0.217
361.95	0.209
362.42	0.209
362.88	0.206
363.34	0.203
363.81	0.196
364.27	0.190
364.73	0.187
365.20	0.182
365.66	0.182
366.12	0.181
366.59	0.175
367.05	0.174
367.51	0.175
367.98	0.171
368.44	0.167
368.90	0.167
369.37	0.167
369.83	0.167
370.29	0.163
370.76	0.162
371.22	0.161
371.68	0.162
372.15	0.161
372.61	0.155
373.07	0.159
373.54	0.154
374.00	0.160
374.46	0.158
374.92	0.157
375.39	0.158
375.85	0.157
376.31	0.156
376.78	0.156
377.24	0.156
377.70	0.156
378.16	0.154
378.63	0.153
379.09	0.156
379.55	0.153
380.01	0.153
380.48	0.153
380.94	0.153
381.40	0.153
381.87	0.154
382.33	0.153
382.79	0.150
383.25	0.151
383.72	0.152
384.18	0.153
384.64	0.150
385.10	0.147
385.56	0.150
386.03	0.150
386.49	0.148
386.95	0.149
387.41	0.149
387.88	0.143
388.34	0.147
388.80	0.145
389.26	0.147
389.72	0.146
390.19	0.145
390.65	0.146
391.11	0.144
391.57	0.143
392.04	0.144
392.50	0.144
392.96	0.143
393.42	0.145
393.88	0.146
394.34	0.145
394.81	0.142
395.27	0.143
395.73	0.139
396.19	0.141
396.65	0.141
397.12	0.140
397.58	0.143
398.04	0.138
398.50	0.142
398.96	0.140
399.42	0.140
399.89	0.142
400.35	0.143
400.81	0.138
401.27	0.139
401.73	0.138
402.19	0.139
402.65	0.133
403.12	0.137
403.58	0.136
404.04	0.131
404.50	0.133
404.96	0.134
405.42	0.133
405.88	0.134
406.34	0.134
406.81	0.134
407.27	0.133
407.73	0.130
408.19	0.131
408.65	0.132
409.11	0.130
409.57	0.128
410.03	0.131
410.49	0.129
410.96	0.130
411.42	0.127
411.88	0.127
412.34	0.125
412.80	0.128
413.26	0.128
413.72	0.128
414.18	0.127
414.64	0.126
415.10	0.127
415.56	0.128
416.02	0.124
416.48	0.124
416.95	0.127
417.41	0.125
417.87	0.124
418.33	0.125
418.79	0.125
419.25	0.124
419.71	0.125
420.17	0.121
420.63	0.121
421.09	0.121
421.55	0.122
422.01	0.122
422.47	0.125
422.93	0.125
423.39	0.123
423.85	0.120
424.31	0.121
424.77	0.121
425.23	0.122
425.69	0.123
426.15	0.124
426.61	0.125
427.07	0.120
427.53	0.120
427.99	0.121
428.45	0.122
428.91	0.123
429.37	0.119
429.83	0.119
430.29	0.122
430.75	0.122
431.21	0.120
431.67	0.121
432.13	0.122
432.59	0.119
433.05	0.121
433.51	0.119
433.97	0.117
434.43	0.121
434.89	0.121
435.35	0.117
435.81	0.117
436.27	0.119
436.73	0.116
437.19	0.118
437.65	0.115
438.11	0.118
438.57	0.118
439.03	0.118
439.48	0.115
439.94	0.116
440.40	0.117
440.86	0.112
441.32	0.114
441.78	0.117
442.24	0.119
442.70	0.118
443.16	0.118
443.62	0.118
444.08	0.116
444.54	0.114
444.99	0.116
445.45	0.115
445.91	0.113
446.37	0.114
446.83	0.116
447.29	0.115
447.75	0.113
448.21	0.119
448.67	0.115
449.12	0.115
449.58	0.112
450.04	0.116
450.50	0.118
450.96	0.113
451.42	0.115
451.88	0.117
452.34	0.112
452.79	0.111
453.25	0.114
453.71	0.113
454.17	0.112
454.63	0.115
455.09	0.112
455.55	0.115
456.00	0.111
456.46	0.115
456.92	0.118
457.38	0.115
457.84	0.112
458.30	0.114
458.75	0.113
459.21	0.110
459.67	0.113
460.13	0.113
460.59	0.114
461.04	0.114
461.50	0.112
461.96	0.115
462.42	0.111
462.88	0.114
463.33	0.113
463.79	0.113
464.25	0.110
464.71	0.115
465.17	0.114
465.62	0.110
466.08	0.114
466.54	0.115
467.00	0.114
467.46	0.113
467.91	0.114
468.37	0.113
468.83	0.110
469.29	0.111
469.74	0.112
470.20	0.113
470.66	0.112
471.12	0.115
471.57	0.113
472.03	0.114
472.49	0.112
472.95	0.115
473.40	0.115
473.86	0.113
474.32	0.111
474.78	0.111
475.23	0.112
475.69	0.111
476.15	0.116
476.60	0.114
477.06	0.114
477.52	0.112
477.98	0.115
478.43	0.117
478.89	0.112
479.35	0.115
479.80	0.114
480.26	0.110
480.72	0.111
481.18	0.113
481.63	0.114
482.09	0.111
482.55	0.110
483.00	0.110
483.46	0.114
483.92	0.112
484.37	0.111
484.83	0.110
485.29	0.111
485.74	0.111
486.20	0.112
486.66	0.112
487.11	0.111
487.57	0.112
488.03	0.111
488.48	0.113
488.94	0.109
489.40	0.111
489.85	0.112
490.31	0.113
490.77	0.110
491.22	0.113
491.68	0.111
492.13	0.111
492.59	0.113
493.05	0.109
493.50	0.111
493.96	0.110
494.42	0.112
494.87	0.114
495.33	0.111
495.78	0.110
496.24	0.111
496.70	0.112
497.15	0.111
497.61	0.112
498.06	0.112
498.52	0.111
498.98	0.111
499.43	0.111
499.89	0.112
500.34	0.110
500.80	0.111
501.25	0.111
501.71	0.110
502.17	0.108
502.62	0.111
503.08	0.108
503.53	0.110
503.99	0.110
504.44	0.110
504.90	0.110
505.36	0.110
505.81	0.110
506.27	0.110
506.72	0.110
507.18	0.108
507.63	0.108
508.09	0.109
508.54	0.108
509.00	0.109
509.45	0.109
509.91	0.108
510.36	0.109
510.82	0.111
511.27	0.108
511.73	0.107
512.19	0.108
512.64	0.107
513.10	0.106
513.55	0.107
514.01	0.109
514.46	0.108
514.92	0.109
515.37	0.108
515.83	0.107
516.28	0.109
516.73	0.107
517.19	0.108
517.64	0.107
518.10	0.108
518.55	0.107
519.01	0.110
519.46	0.108
519.92	0.107
520.37	0.107
520.83	0.107
521.28	0.108
521.74	0.107
522.19	0.106
522.65	0.107
523.10	0.105
523.55	0.106
524.01	0.107
524.46	0.106
524.92	0.107
525.37	0.109
525.83	0.107
526.28	0.107
526.73	0.108
527.19	0.107
527.64	0.109
528.10	0.106
528.55	0.107
529.01	0.108
529.46	0.109
529.91	0.105
530.37	0.106
530.82	0.107
531.28	0.106
531.73	0.108
532.18	0.108
532.64	0.107
533.09	0.109
533.54	0.107
534.00	0.111
534.45	0.108
534.91	0.106
535.36	0.108
535.81	0.106
536.27	0.107
536.72	0.108
537.17	0.108
537.63	0.110
538.08	0.109
538.54	0.110
538.99	0.113
539.44	0.109
539.90	0.110
540.35	0.109
540.80	0.110
541.26	0.112
541.71	0.113
542.16	0.112
542.62	0.115
543.07	0.113
543.52	0.113
543.98	0.111
544.43	0.113
544.88	0.112
545.34	0.116
545.79	0.115
546.24	0.114
546.69	0.115
547.15	0.116
547.60	0.116
548.05	0.117
548.51	0.117
548.96	0.119
549.41	0.116
549.86	0.119
550.32	0.119
550.77	0.118
551.22	0.118
551.68	0.119
552.13	0.121
552.58	0.119
553.03	0.123
553.49	0.121
553.94	0.122
554.39	0.122
554.84	0.123
555.30	0.124
555.75	0.124
556.20	0.124
556.65	0.125
557.11	0.126
557.56	0.126
558.01	0.127
558.46	0.125
558.92	0.130
559.37	0.130
559.82	0.129
560.27	0.128
560.72	0.130
561.18	0.131
561.63	0.133
562.08	0.132
562.53	0.131
562.99	0.133
563.44	0.133
563.89	0.134
564.34	0.135
564.79	0.134
565.25	0.136
565.70	0.137
566.15	0.137
566.60	0.142
567.05	0.139
567.50	0.140
567.96	0.141
568.41	0.141
568.86	0.141
569.31	0.141
569.76	0.144
570.21	0.145
570.67	0.143
571.12	0.147
571.57	0.149
572.02	0.149
572.47	0.148
572.92	0.150
573.37	0.154
573.83	0.152
574.28	0.154
574.73	0.152
575.18	0.154
575.63	0.154
576.08	0.156
576.53	0.157
576.98	0.156
577.44	0.162
577.89	0.158
578.34	0.161
578.79	0.162
579.24	0.165
579.69	0.163
580.14	0.166
580.59	0.167
581.04	0.166
581.49	0.170
581.95	0.172
582.40	0.172
582.85	0.174
583.30	0.176
583.75	0.177
584.20	0.178
584.65	0.179
585.10	0.183
585.55	0.185
586.00	0.183
586.45	0.187
586.90	0.188
587.35	0.189
587.80	0.194
588.25	0.192
588.71	0.195
589.16	0.199
589.61	0.198
590.06	0.201
590.51	0.202
590.96	0.203
591.41	0.207
591.86	0.210
592.31	0.210
592.76	0.214
593.21	0.214
593.66	0.218
594.11	0.219
594.56	0.220
595.01	0.223
595.46	0.225
595.91	0.227
596.36	0.229
596.81	0.233
597.26	0.234
597.71	0.238
598.16	0.240
598.61	0.241
599.06	0.243
599.51	0.246
599.96	0.246
600.41	0.249
600.86	0.253
601.31	0.252
601.76	0.259
602.21	0.260
602.65	0.262
603.10	0.262
603.55	0.264
604.00	0.270
604.45	0.267
604.90	0.271
605.35	0.276
605.80	0.274
606.25	0.276
606.70	0.282
607.15	0.280
607.60	0.283
608.05	0.284
608.50	0.287
608.95	0.288
609.39	0.288
609.84	0.291
610.29	0.294
610.74	0.292
611.19	0.293
611.64	0.298
612.09	0.297
612.54	0.299
612.99	0.297
613.44	0.301
613.88	0.302
614.33	0.299
614.78	0.303
615.23	0.306
615.68	0.305
616.13	0.305
616.58	0.307
617.03	0.308
617.47	0.308
617.92	0.310
618.37	0.311
618.82	0.311
619.27	0.309
619.72	0.311
620.17	0.314
620.61	0.313
621.06	0.311
621.51	0.313
621.96	0.313
622.41	0.314
622.86	0.315
623.30	0.317
623.75	0.319
624.20	0.317
624.65	0.319
625.10	0.320
625.54	0.318
625.99	0.318
626.44	0.322
626.89	0.322
627.34	0.323
627.78	0.327
628.23	0.327
628.68	0.328
629.13	0.328
629.58	0.330
630.02	0.333
630.47	0.333
630.92	0.333
631.37	0.338
631.81	0.338
632.26	0.338
632.71	0.341
633.16	0.344
633.61	0.348
634.05	0.348
634.50	0.350
634.95	0.352
635.40	0.356
635.84	0.357
636.29	0.362
636.74	0.364
637.18	0.363
637.63	0.370
638.08	0.373
638.53	0.372
638.97	0.377
639.42	0.379
639.87	0.380
640.32	0.386
640.76	0.387
641.21	0.391
641.66	0.395
642.10	0.397
642.55	0.402
643.00	0.404
643.44	0.405
643.89	0.411
644.34	0.416
644.79	0.422
645.23	0.420
645.68	0.426
646.13	0.434
646.57	0.432
647.02	0.438
647.47	0.443
647.91	0.445
648.36	0.445
648.81	0.452
649.25	0.457
649.70	0.459
650.15	0.462
650.59	0.465
651.04	0.472
651.48	0.473
651.93	0.480
652.38	0.480
652.82	0.483
653.27	0.481
653.72	0.490
654.16	0.492
654.61	0.493
655.06	0.497
655.50	0.501
655.95	0.502
656.39	0.501
656.84	0.507
657.29	0.513
657.73	0.514
658.18	0.513
658.62	0.518
659.07	0.524
659.52	0.523
659.96	0.528
660.41	0.529
660.85	0.529
661.30	0.531
661.74	0.534
662.19	0.538
662.64	0.532
663.08	0.534
663.53	0.537
663.97	0.538
664.42	0.536
664.86	0.538
665.31	0.539
665.75	0.539
666.20	0.536
666.65	0.536
667.09	0.541
667.54	0.532
667.98	0.534
668.43	0.535
668.87	0.530
669.32	0.530
669.76	0.525
670.21	0.521
670.65	0.517
671.10	0.510
671.54	0.510
671.99	0.505
672.43	0.498
672.88	0.491
673.32	0.489
673.77	0.479
674.21	0.473
674.66	0.464
675.10	0.459
675.55	0.446
675.99	0.443
676.44	0.433
676.88	0.425
677.33	0.416
677.77	0.407
678.22	0.398
678.66	0.390
679.11	0.379
679.55	0.376
679.99	0.364
680.44	0.352
680.88	0.345
681.33	0.335
681.77	0.325
682.22	0.315
682.66	0.309
683.11	0.299
683.55	0.292
683.99	0.283
684.44	0.275
684.88	0.264
685.33	0.257
685.77	0.251
686.21	0.242
686.66	0.234
687.10	0.226
687.55	0.220
687.99	0.212
688.44	0.206
688.88	0.198
689.32	0.191
689.77	0.186
690.21	0.180
690.65	0.176
691.10	0.169
691.54	0.164
691.99	0.160
692.43	0.157
692.87	0.152
693.32	0.146
693.76	0.142
694.20	0.139
694.65	0.135
695.09	0.129
695.53	0.129
695.98	0.124
696.42	0.123
696.86	0.120
697.31	0.120
697.75	0.113
698.19	0.113
698.64	0.108
699.08	0.106
699.52	0.104
699.97	0.103
700.41	0.101
700.85	0.100
701.30	0.094
701.74	0.094
702.18	0.092
702.63	0.090
703.07	0.089
703.51	0.088
703.96	0.087
704.40	0.085
704.84	0.083
705.28	0.085
705.73	0.083
706.17	0.079
706.61	0.083
707.06	0.078
707.50	0.078
707.94	0.080
708.38	0.077
708.83	0.076
709.27	0.076
709.71	0.075
710.15	0.072
710.60	0.073
711.04	0.071
711.48	0.074
711.92	0.071
712.37	0.070
712.81	0.073
713.25	0.071
713.69	0.070
714.13	0.069
714.58	0.069
715.02	0.069
715.46	0.067
715.90	0.068
716.35	0.067
716.79	0.068
717.23	0.069
717.67	0.069
718.11	0.067
718.56	0.067
719.00	0.067
719.44	0.068
719.88	0.070
720.32	0.069
720.76	0.064
721.21	0.068
721.65	0.067
722.09	0.067
722.53	0.066
722.97	0.067
723.41	0.065
723.86	0.067
724.30	0.064
724.74	0.067
725.18	0.064
725.62	0.065
726.06	0.068
726.50	0.068
726.95	0.067
727.39	0.066
727.83	0.069
728.27	0.067
728.71	0.068
729.15	0.066
729.59	0.066
730.03	0.066
730.48	0.068
730.92	0.067
731.36	0.064
731.80	0.065
732.24	0.071
732.68	0.068
733.12	0.067
733.56	0.069
734.00	0.068
734.44	0.069
734.89	0.071
735.33	0.065
735.77	0.070
736.21	0.066
736.65	0.068
737.09	0.071
737.53	0.070
737.97	0.069
738.41	0.067
738.85	0.071
739.29	0.066
739.73	0.070
740.17	0.067
740.61	0.069
741.05	0.071
741.49	0.069
741.93	0.069
742.37	0.067
742.81	0.067
743.26	0.070
743.70	0.067
744.14	0.069
744.58	0.070
745.02	0.069
745.46	0.068
745.90	0.068
746.34	0.067
746.78	0.069
747.22	0.070
747.66	0.066
748.10	0.070
748.54	0.068
748.98	0.067
749.42	0.071
749.86	0.068
750.29	0.069
750.73	0.069
751.17	0.069
751.61	0.070
752.05	0.066
752.49	0.067
752.93	0.068
753.37	0.067
753.81	0.067
754.25	0.067
754.69	0.071
755.13	0.068
755.57	0.069
756.01	0.067
756.45	0.066
756.89	0.067
757.33	0.064
757.77	0.067
758.21	0.068
758.64	0.065
759.08	0.065
759.52	0.066
759.96	0.065
760.40	0.066
760.84	0.063
761.28	0.065
761.72	0.067
762.16	0.062
762.60	0.066
763.03	0.067
763.47	0.064
763.91	0.065
764.35	0.065
764.79	0.066
765.23	0.068
765.67	0.065
766.11	0.066
766.54	0.067
766.98	0.065
767.42	0.067
767.86	0.068
768.30	0.064
768.74	0.067
769.17	0.066
769.61	0.063
770.05	0.066
770.49	0.065
770.93	0.064
771.37	0.068
771.80	0.063
772.24	0.062
772.68	0.065
773.12	0.063
773.56	0.068
774.00	0.065
774.43	0.064
774.87	0.061
775.31	0.065
775.75	0.061
776.19	0.061
776.62	0.066
777.06	0.064
777.50	0.064
777.94	0.063
778.37	0.066
778.81	0.063
779.25	0.061
779.69	0.065
780.13	0.064
780.56	0.058
781.00	0.066
781.44	0.065
781.88	0.064
782.31	0.062
782.75	0.060
783.19	0.064
783.63	0.064
784.06	0.063
784.50	0.066
784.94	0.065
785.37	0.062
785.81	0.063
786.25	0.063
786.69	0.062
787.12	0.068
787.56	0.064
788.00	0.065
788.43	0.063
788.87	0.061
789.31	0.066
789.75	0.061
790.18	0.062
790.62	0.063
791.06	0.064
791.49	0.064
791.93	0.060
792.37	0.063
792.80	0.067
793.24	0.060
793.68	0.063
794.11	0.066
794.55	0.063
794.99	0.060
795.42	0.066
795.86	0.065
796.30	0.060
796.73	0.063
797.17	0.061
797.61	0.062
798.04	0.064
798.48	0.063
798.91	0.067
799.35	0.061
799.79	0.062
800.22	0.063
800.66	0.058
801.10	0.062
801.53	0.068
801.97	0.062
802.40	0.060
802.84	0.063
803.28	0.061
803.71	0.062
804.15	0.063
804.58	0.067
805.02	0.063
805.46	0.059
805.89	0.062
806.33	0.065
806.76	0.064
807.20	0.062
807.63	0.065
808.07	0.062
808.51	0.064
808.94	0.062
809.38	0.060
809.81	0.066
810.25	0.064
810.68	0.064
811.12	0.061
811.55	0.064
811.99	0.063
812.42	0.065
812.86	0.066
813.29	0.065
813.73	0.064
814.17	0.056
814.60	0.063
815.04	0.060
815.47	0.059
815.91	0.061
816.34	0.063
816.78	0.064
817.21	0.064
817.65	0.064
818.08	0.058
818.52	0.062
818.95	0.064
819.39	0.066
819.82	0.061
820.25	0.063
820.69	0.067
821.12	0.068
821.56	0.060
821.99	0.064
822.43	0.064
822.86	0.062
823.30	0.064
823.73	0.063
824.17	0.068
824.60	0.065
825.04	0.060
825.47	0.069
825.90	0.059
826.34	0.064
826.77	0.068
827.21	0.065
827.64	0.062
828.08	0.068
828.51	0.064
828.94	0.067
829.38	0.070
829.81	0.069
830.25	0.070
830.68	0.066
831.11	0.064
831.55	0.072
831.98	0.070
832.42	0.070
832.85	0.074
833.28	0.070
833.72	0.065
834.15	0.077
834.58	0.070
835.02	0.071
835.45	0.071
835.88	0.072
836.32	0.075
836.75	0.069
837.19	0.070
837.62	0.068
838.05	0.072
838.49	0.066
838.92	0.071
839.35	0.070
839.79	0.069
840.22	0.067
840.65	0.071
841.09	0.074
841.52	0.071
841.95	0.068
842.39	0.071
842.82	0.071
843.25	0.071
843.68	0.074
844.12	0.072
844.55	0.069
844.98	0.068
845.42	0.068
845.85	0.068
846.28	0.069
846.71	0.069
847.15	0.071
847.58	0.071
848.01	0.072
848.45	0.069
848.88	0.068
849.31	0.068
849.74	0.073
850.18	0.066
850.61	0.076
851.04	0.068
851.47	0.070
851.91	0.072
852.34	0.072
852.77	0.068
853.20	0.075
853.64	0.070
854.07	0.069
854.50	0.071
854.93	0.067
855.36	0.071
855.80	0.074
856.23	0.071
856.66	0.073
857.09	0.076
857.52	0.070
857.96	0.075
858.39	0.077
858.82	0.068
859.25	0.079
859.68	0.074
860.12	0.073
860.55	0.074
860.98	0.070
861.41	0.085
861.84	0.074
862.27	0.074
862.71	0.078
863.14	0.076
863.57	0.072
864.00	0.073
864.43	0.068
864.86	0.080
865.30	0.077
865.73	0.077
866.16	0.074
866.59	0.076
867.02	0.076
867.45	0.076
867.88	0.073
868.31	0.076
868.75	0.078
869.18	0.072
869.61	0.072
870.04	0.076
870.47	0.075
870.90	0.080
871.33	0.078
871.76	0.067
872.19	0.074
872.62	0.076
873.06	0.080
873.49	0.078
873.92	0.080
874.35	0.077
874.78	0.090
875.21	0.078
875.64	0.080
876.07	0.085
876.50	0.077
876.93	0.080
877.36	0.083
877.79	0.074
878.22	0.075
878.65	0.079
879.08	0.081
879.51	0.079
879.94	0.077
880.37	0.075
880.80	0.081
881.23	0.073
881.67	0.077
882.10	0.080
882.53	0.074
882.96	0.090
883.39	0.085
883.82	0.081
884.25	0.083
884.68	0.079
885.11	0.077
885.54	0.085
885.97	0.080
886.39	0.079
886.82	0.082
887.25	0.081
887.68	0.084
888.11	0.079
888.54	0.080
888.97	0.081
889.40	0.085
889.83	0.082
890.26	0.087
890.69	0.079
891.12	0.081
891.55	0.083
891.98	0.079
892.41	0.084
892.84	0.086
893.27	0.079
893.70	0.084
894.13	0.084
894.56	0.082
894.98	0.089
895.41	0.083
895.84	0.092
896.27	0.088
896.70	0.084
897.13	0.082
897.56	0.085
897.99	0.082
898.42	0.087
898.85	0.083
899.27	0.086
899.70	0.093
900.13	0.087
900.56	0.086
900.99	0.091
901.42	0.080
901.85	0.089
902.28	0.090
902.70	0.085
903.13	0.086
903.56	0.090
903.99	0.083
904.42	0.093
904.85	0.087
905.27	0.089
905.70	0.088
906.13	0.086
906.56	0.087
906.99	0.086
907.42	0.085
907.84	0.091
908.27	0.090
908.70	0.083
909.13	0.089
909.56	0.087
909.98	0.087
910.41	0.090
910.84	0.084
911.27	0.083
911.70	0.088
912.12	0.085
912.55	0.088
912.98	0.082
913.41	0.083
913.84	0.087
914.26	0.083
914.69	0.079
915.12	0.088
915.55	0.083
915.97	0.087
916.40	0.089
916.83	0.087
917.26	0.089
917.68	0.089
918.11	0.091
918.54	0.091
918.97	0.090
919.39	0.091
919.82	0.090
920.25	0.089
920.67	0.088
921.10	0.090
921.53	0.088
921.96	0.090
922.38	0.091
922.81	0.091
923.24	0.093
923.66	0.092
924.09	0.091
924.52	0.097
924.94	0.092
925.37	0.097
925.80	0.099
926.22	0.095
926.65	0.096
927.08	0.093
927.50	0.099
927.93	0.102
928.36	0.094
928.78	0.099
929.21	0.103
929.64	0.100
930.06	0.104
930.49	0.107
930.92	0.102
931.34	0.101
931.77	0.107
932.20	0.103
932.62	0.100
933.05	0.101
933.47	0.105
933.90	0.108
934.33	0.110
934.75	0.111
935.18	0.114
935.61	0.111
936.03	0.112
936.46	0.117
936.88	0.121
937.31	0.119
937.73	0.124
938.16	0.123
938.59	0.125
939.01	0.126
939.44	0.128
939.86	0.131
940.29	0.126
940.71	0.129
941.14	0.135
941.57	0.130
941.99	0.138
942.42	0.137
942.84	0.137
943.27	0.145
943.69	0.139
944.12	0.143
944.54	0.158
944.97	0.142
945.39	0.151
945.82	0.156
946.24	0.157
946.67	0.159
947.09	0.162
947.52	0.157
947.94	0.163
948.37	0.160
948.79	0.169
949.22	0.175
949.64	0.166
950.07	0.172
950.49	0.182
950.92	0.175
951.34	0.182
951.77	0.188
952.19	0.187
952.62	0.186
953.04	0.190
953.47	0.197
953.89	0.203
954.32	0.196
954.74	0.203
955.17	0.204
955.59	0.206
956.01	0.215
956.44	0.220
956.86	0.214
957.29	0.220
957.71	0.227
958.14	0.222
958.56	0.229
958.98	0.233
959.41	0.229
959.83	0.235
960.26	0.232
960.68	0.235
961.10	0.242
961.53	0.235
961.95	0.240
962.38	0.248
962.80	0.241
963.22	0.245
963.65	0.248
964.07	0.243
964.50	0.248
964.92	0.242
965.34	0.246
965.77	0.252
966.19	0.244
966.61	0.246
967.04	0.254
967.46	0.246
967.88	0.247
968.31	0.255
968.73	0.251
969.15	0.249
969.58	0.249
970.00	0.251
970.42	0.254
970.85	0.249
971.27	0.249
971.69	0.253
972.12	0.246
972.54	0.250
972.96	0.255
973.39	0.256
973.81	0.258
974.23	0.260
974.65	0.248
975.08	0.255
975.50	0.253
975.92	0.250
976.35	0.258
976.77	0.255
977.19	0.250
977.61	0.256
978.04	0.256
978.46	0.254
978.88	0.252
979.30	0.255
979.73	0.258
980.15	0.252
980.57	0.253
980.99	0.259
981.42	0.252
981.84	0.254
982.26	0.260
982.68	0.256
983.11	0.258
983.53	0.259
983.95	0.255
984.37	0.257
984.79	0.255
985.22	0.251
985.64	0.253
986.06	0.245
986.48	0.252
986.90	0.255
987.33	0.250
987.75	0.252
988.17	0.253
988.59	0.247
989.01	0.249
989.43	0.245
989.86	0.249
990.28	0.250
990.70	0.246
991.12	0.245
991.54	0.249
991.96	0.247
992.39	0.240
992.81	0.250
993.23	0.236
993.65	0.247
994.07	0.241
994.49	0.240
994.91	0.244
995.34	0.238
995.76	0.236
996.18	0.246
996.60	0.234
997.02	0.231
997.44	0.244
997.86	0.234
998.28	0.232
998.70	0.235
999.12	0.232
999.55	0.235
999.97	0.225
1000.39	0.231
1000.81	0.227
1001.23	0.222
1001.65	0.219
1002.07	0.228
1002.49	0.219
1002.91	0.230
1003.33	0.225
1003.75	0.221
1004.17	0.231
1004.59	0.228
1005.01	0.216
1005.43	0.222
1005.85	0.214
1006.28	0.213
1006.70	0.222
1007.12	0.219
1007.54	0.216
1007.96	0.217
1008.38	0.210
1008.80	0.216
1009.22	0.212
1009.64	0.216
1010.06	0.223
1010.48	0.209
1010.90	0.208
1011.32	0.216
1011.74	0.206
1012.16	0.199
1012.58	0.213
1013.00	0.204
1013.42	0.199
1013.84	0.197
1014.26	0.201
1014.67	0.209
1015.09	0.195
1015.51	0.199
1015.93	0.215
1016.35	0.187
1016.77	0.193
1017.19	0.200
1017.61	0.188
1018.03	0.180
1018.45	0.196
1018.87	0.191
1019.29	0.186
1019.71	0.172
1020.13	0.192
1020.55	0.209
1020.97	0.183
1021.38	0.175
1021.80	0.193
1022.22	0.185
1022.64	0.176
1023.06	0.206
1023.48	0.183
1023.90	0.183
1024.32	0.174
1024.74	0.180
1025.15	0.186
1025.57	0.176
1025.99	0.166
1026.41	0.183
1026.83	0.178
1027.25	0.168
1027.67	0.195
1028.08	0.166
1028.50	0.175
1028.92	0.171
1029.34	0.172
1029.76	0.186
1030.18	0.154
1030.60	0.169
1031.01	0.167
1031.43	0.155
1031.85	0.148
1032.27	0.179
1032.69	0.153
1033.10	0.162
1033.52	0.165
1033.94	0.158
1034.36	0.172
1034.78	0.154
1035.19	0.147
1035.61	0.169
1036.03	0.141
1036.45	0.151
1036.87	0.174
1037.28	0.147
1037.70	0.142
1038.12	0.157
1038.54	0.141
1038.95	0.163
1039.37	0.158
1039.79	0.147
1040.21	0.166
1040.62	0.112
1041.04	0.151
1041.46	0.188
1041.88	0.160
1042.29	0.148
1042.71	0.161
1043.13	0.129
1043.55	0.164
1043.96	0.145
1044.38	0.136
1044.80	0.182
1045.21	0.134
1045.63	0.146
1046.05	0.172
1046.47	0.150
1046.88	0.144
1047.30	0.168
1047.72	0.137
1048.13	0.121
1048.55	0.154
1048.97	0.142
1049.38	0.178
1049.80	0.098
1050.22	0.127
1050.63	0.171
1051.05	0.130
1051.47	0.133
1051.88	0.160
1052.30	0.127
1052.72	0.132
1053.13	0.162
1053.55	0.113
1053.97	0.167
1054.38	0.143
1054.80	0.147
1055.21	0.166
1055.63	0.108
1056.05	0.121
1056.46	0.195
1056.88	0.123
1057.29	0.122
1057.71	0.172
1058.13	0.153
1058.54	0.171
1058.96	0.122
1059.37	0.144
1059.79	0.203
1060.21	0.134
1060.62	0.121
1061.04	0.212
1061.45	0.151
1061.87	0.133
1062.28	0.237
1062.70	0.160
1063.12	0.171
1063.53	0.176
1063.95	0.150
1064.36	0.229
1064.78	0.123
1065.19	0.159
1065.61	0.254
1066.02	0.114
1066.44	0.136
1066.85	0.281
1067.27	0.144
1067.68	0.123
1068.10	0.222
1068.51	0.151
1068.93	0.193
1069.35	0.155
1069.76	0.225
1070.17	0.330
1070.59	0.134
1071.00	0.136
1071.42	0.292
1071.83	0.231
1072.25	0.138
1072.66	0.469
1073.08	0.224
1073.49	0.368
1073.91	0.191
1074.32	0.227
1074.74	0.636
1075.15	0.153
1075.57	0.238
1075.98	0.391
1076.40	0.317
1076.81	0.017
1077.22	0.613
1077.64	0.443
1078.05	0.333
1078.47	0.270
1078.88	0.239
1079.30	0.724
1079.71	0.262
1080.12	0.259
1080.54	0.824
1080.95	0.495
1081.37	0.243
1081.78	-0.000
1082.19	0.417
1082.61	0.279
1083.02	-0.000
1083.44	0.423
1083.85	-0.000
1084.26	0.199
1084.68	0.420
1085.09	-0.000
1085.50	0.138
1085.92	0.435
1086.33	-0.000
1086.74	-0.000
1087.16	0.054
1087.57	-0.000
1087.98	-0.000
1088.40	0.475
1088.81	0.503
1089.22	0.502
1089.64	1.332
1090.05	0.382
1090.46	-0.000
1090.88	-0.000
1091.29	1.562
1091.70	0.369
1092.12	-0.000
1092.53	-0.000
1092.94	0.625
1093.36	-0.000
1093.77	-0.000
1094.18	-0.000
1094.59	1.014
1095.01	0.560
1095.42	-0.000
1095.83	1.109
1096.25	0.353
1096.66	-0.000
1097.07	-0.000
1097.48	0.491
1097.90	-0.000
1098.31	-0.000
1098.72	-0.000
1099.13	0.735
>>>>>End Processed Spectral Data<<<<<
