SpectraSuite Data File
++++++++++++++++++++++++++++++++++++
Date: Wed May 04 15:04:33 CEST 2016
User: spectrasuite
Dark Spectrum Present: Yes
Reference Spectrum Present: Yes
Number of Sampled Component Spectra: 1
Spectrometers: HR+C0708
Integration Time (usec): 1000 (HR+C0708)
Spectra Averaged: 10 (HR+C0708)
Boxcar Smoothing: 0 (HR+C0708)
Correct for Electrical Dark: No (HR+C0708)
Strobe/Lamp Enabled: No (HR+C0708)
Correct for Detector Non-linearity: No (HR+C0708)
Correct for Stray Light: No (HR+C0708)
Number of Pixels in Processed Spectrum: 2048
>>>>>Begin Processed Spectral Data<<<<<
188.76	-0.000
189.23	-0.000
189.70	0.894
190.17	-0.000
190.64	-0.000
191.12	-0.000
191.59	-0.000
192.06	-0.000
192.53	-0.000
193.01	-0.000
193.48	-0.000
193.95	-0.000
194.42	-0.000
194.90	-0.000
195.37	-0.000
195.84	-0.000
196.31	-0.000
196.78	-0.000
197.26	-0.000
197.73	-0.000
198.20	-0.000
198.67	-0.000
199.14	-0.000
199.62	-0.000
200.09	-0.000
200.56	-0.000
201.03	-0.000
201.50	0.711
201.97	0.770
202.45	-0.000
202.92	1.466
203.39	0.892
203.86	0.724
204.33	-0.000
204.80	0.679
205.28	1.041
205.75	1.716
206.22	0.763
206.69	0.777
207.16	1.209
207.63	-0.000
208.11	1.107
208.58	0.900
209.05	1.556
209.52	-0.000
209.99	0.748
210.46	0.694
210.93	1.006
211.41	1.005
211.88	0.978
212.35	-0.000
212.82	-0.000
213.29	0.885
213.76	0.965
214.23	1.254
214.70	1.723
215.18	1.152
215.65	0.697
216.12	0.926
216.59	1.118
217.06	0.694
217.53	0.984
218.00	2.425
218.47	0.643
218.94	1.327
219.41	1.004
219.89	0.740
220.36	0.800
220.83	0.986
221.30	-0.000
221.77	0.934
222.24	0.836
222.71	1.737
223.18	0.898
223.65	0.629
224.12	0.770
224.59	1.285
225.06	0.946
225.54	0.899
226.01	-0.000
226.48	1.852
226.95	0.951
227.42	1.208
227.89	-0.000
228.36	1.300
228.83	1.095
229.30	1.299
229.77	-0.000
230.24	1.202
230.71	1.314
231.18	1.841
231.65	1.827
232.12	1.548
232.59	1.842
233.06	-0.000
233.53	2.213
234.00	1.648
234.47	2.189
234.94	-0.000
235.41	1.863
235.88	2.005
236.35	-0.000
236.82	2.832
237.29	2.217
237.76	2.265
238.23	-0.000
238.70	2.791
239.17	2.062
239.64	3.870
240.11	2.597
240.58	2.043
241.05	2.698
241.52	2.722
241.99	2.366
242.46	2.476
242.93	2.398
243.40	-0.000
243.87	2.492
244.34	2.367
244.81	2.669
245.28	2.905
245.75	2.350
246.22	3.039
246.69	2.792
247.16	2.476
247.63	2.985
248.10	2.693
248.57	-0.000
249.04	2.636
249.51	2.390
249.98	4.104
250.45	2.787
250.92	2.391
251.39	2.432
251.85	2.493
252.32	2.061
252.79	1.994
253.26	1.921
253.73	1.809
254.20	1.659
254.67	1.565
255.14	1.535
255.61	1.443
256.08	1.382
256.55	1.314
257.02	1.274
257.49	1.220
257.95	1.182
258.42	1.145
258.89	1.112
259.36	1.083
259.83	1.053
260.30	1.027
260.77	1.001
261.24	0.971
261.71	0.955
262.17	0.939
262.64	0.918
263.11	0.898
263.58	0.881
264.05	0.866
264.52	0.855
264.99	0.843
265.46	0.826
265.92	0.813
266.39	0.798
266.86	0.796
267.33	0.781
267.80	0.770
268.27	0.757
268.74	0.757
269.20	0.740
269.67	0.733
270.14	0.728
270.61	0.720
271.08	0.705
271.55	0.702
272.01	0.695
272.48	0.686
272.95	0.679
273.42	0.675
273.89	0.672
274.36	0.662
274.82	0.658
275.29	0.654
275.76	0.648
276.23	0.648
276.70	0.636
277.16	0.637
277.63	0.633
278.10	0.628
278.57	0.626
279.04	0.625
279.50	0.620
279.97	0.623
280.44	0.612
280.91	0.614
281.38	0.613
281.84	0.609
282.31	0.609
282.78	0.606
283.25	0.605
283.72	0.605
284.18	0.605
284.65	0.605
285.12	0.604
285.59	0.600
286.05	0.602
286.52	0.602
286.99	0.604
287.46	0.605
287.92	0.606
288.39	0.601
288.86	0.605
289.33	0.604
289.79	0.600
290.26	0.601
290.73	0.599
291.20	0.594
291.66	0.595
292.13	0.594
292.60	0.588
293.07	0.584
293.53	0.580
294.00	0.579
294.47	0.570
294.93	0.569
295.40	0.558
295.87	0.554
296.34	0.544
296.80	0.539
297.27	0.528
297.74	0.523
298.20	0.516
298.67	0.505
299.14	0.500
299.60	0.491
300.07	0.485
300.54	0.479
301.01	0.469
301.47	0.461
301.94	0.454
302.41	0.445
302.87	0.437
303.34	0.432
303.81	0.423
304.27	0.416
304.74	0.410
305.21	0.401
305.67	0.396
306.14	0.388
306.61	0.388
307.07	0.380
307.54	0.372
308.01	0.367
308.47	0.361
308.94	0.356
309.40	0.355
309.87	0.351
310.34	0.347
310.80	0.344
311.27	0.337
311.74	0.335
312.20	0.332
312.67	0.331
313.13	0.328
313.60	0.325
314.07	0.321
314.53	0.319
315.00	0.316
315.47	0.317
315.93	0.315
316.40	0.309
316.86	0.308
317.33	0.305
317.80	0.304
318.26	0.305
318.73	0.302
319.19	0.303
319.66	0.298
320.13	0.299
320.59	0.298
321.06	0.297
321.52	0.294
321.99	0.294
322.45	0.294
322.92	0.286
323.39	0.288
323.85	0.287
324.32	0.285
324.78	0.284
325.25	0.282
325.71	0.284
326.18	0.279
326.64	0.277
327.11	0.274
327.58	0.277
328.04	0.275
328.51	0.273
328.97	0.272
329.44	0.271
329.90	0.268
330.37	0.266
330.83	0.265
331.30	0.264
331.76	0.261
332.23	0.260
332.69	0.258
333.16	0.258
333.62	0.253
334.09	0.251
334.56	0.251
335.02	0.248
335.49	0.247
335.95	0.243
336.42	0.244
336.88	0.236
337.35	0.238
337.81	0.236
338.28	0.237
338.74	0.235
339.20	0.237
339.67	0.236
340.13	0.235
340.60	0.233
341.06	0.229
341.53	0.226
341.99	0.227
342.46	0.225
342.92	0.224
343.39	0.222
343.85	0.218
344.32	0.220
344.78	0.219
345.25	0.224
345.71	0.221
346.17	0.221
346.64	0.222
347.10	0.218
347.57	0.215
348.03	0.212
348.50	0.212
348.96	0.213
349.43	0.211
349.89	0.214
350.35	0.213
350.82	0.209
351.28	0.209
351.75	0.208
352.21	0.214
352.67	0.205
353.14	0.204
353.60	0.206
354.07	0.204
354.53	0.203
355.00	0.202
355.46	0.201
355.92	0.201
356.39	0.200
356.85	0.196
357.31	0.195
357.78	0.192
358.24	0.193
358.71	0.196
359.17	0.194
359.63	0.193
360.10	0.189
360.56	0.190
361.03	0.188
361.49	0.190
361.95	0.189
362.42	0.187
362.88	0.189
363.34	0.189
363.81	0.187
364.27	0.185
364.73	0.187
365.20	0.182
365.66	0.183
366.12	0.185
366.59	0.181
367.05	0.183
367.51	0.181
367.98	0.181
368.44	0.181
368.90	0.181
369.37	0.179
369.83	0.179
370.29	0.176
370.76	0.178
371.22	0.177
371.68	0.177
372.15	0.178
372.61	0.172
373.07	0.174
373.54	0.174
374.00	0.173
374.46	0.174
374.92	0.175
375.39	0.173
375.85	0.175
376.31	0.172
376.78	0.172
377.24	0.173
377.70	0.172
378.16	0.174
378.63	0.173
379.09	0.175
379.55	0.173
380.01	0.175
380.48	0.174
380.94	0.174
381.40	0.171
381.87	0.170
382.33	0.169
382.79	0.168
383.25	0.173
383.72	0.170
384.18	0.170
384.64	0.171
385.10	0.168
385.56	0.170
386.03	0.168
386.49	0.169
386.95	0.167
387.41	0.168
387.88	0.165
388.34	0.165
388.80	0.168
389.26	0.167
389.72	0.167
390.19	0.165
390.65	0.164
391.11	0.167
391.57	0.165
392.04	0.166
392.50	0.164
392.96	0.164
393.42	0.165
393.88	0.166
394.34	0.164
394.81	0.163
395.27	0.164
395.73	0.162
396.19	0.162
396.65	0.161
397.12	0.162
397.58	0.162
398.04	0.161
398.50	0.162
398.96	0.163
399.42	0.162
399.89	0.163
400.35	0.162
400.81	0.160
401.27	0.160
401.73	0.161
402.19	0.160
402.65	0.157
403.12	0.158
403.58	0.158
404.04	0.157
404.50	0.154
404.96	0.154
405.42	0.157
405.88	0.153
406.34	0.158
406.81	0.157
407.27	0.154
407.73	0.150
408.19	0.151
408.65	0.152
409.11	0.151
409.57	0.152
410.03	0.158
410.49	0.153
410.96	0.151
411.42	0.152
411.88	0.151
412.34	0.148
412.80	0.149
413.26	0.152
413.72	0.149
414.18	0.148
414.64	0.147
415.10	0.148
415.56	0.149
416.02	0.147
416.48	0.148
416.95	0.150
417.41	0.147
417.87	0.146
418.33	0.149
418.79	0.144
419.25	0.147
419.71	0.147
420.17	0.146
420.63	0.143
421.09	0.143
421.55	0.143
422.01	0.145
422.47	0.148
422.93	0.148
423.39	0.147
423.85	0.145
424.31	0.144
424.77	0.145
425.23	0.144
425.69	0.146
426.15	0.148
426.61	0.146
427.07	0.142
427.53	0.140
427.99	0.141
428.45	0.144
428.91	0.142
429.37	0.143
429.83	0.140
430.29	0.145
430.75	0.147
431.21	0.147
431.67	0.146
432.13	0.146
432.59	0.140
433.05	0.144
433.51	0.141
433.97	0.139
434.43	0.144
434.89	0.145
435.35	0.143
435.81	0.142
436.27	0.143
436.73	0.140
437.19	0.143
437.65	0.140
438.11	0.143
438.57	0.143
439.03	0.141
439.48	0.140
439.94	0.144
440.40	0.140
440.86	0.136
441.32	0.142
441.78	0.137
442.24	0.144
442.70	0.142
443.16	0.140
443.62	0.140
444.08	0.138
444.54	0.140
444.99	0.139
445.45	0.139
445.91	0.138
446.37	0.139
446.83	0.139
447.29	0.140
447.75	0.138
448.21	0.142
448.67	0.138
449.12	0.138
449.58	0.139
450.04	0.143
450.50	0.138
450.96	0.136
451.42	0.137
451.88	0.142
452.34	0.136
452.79	0.138
453.25	0.136
453.71	0.138
454.17	0.135
454.63	0.142
455.09	0.138
455.55	0.136
456.00	0.135
456.46	0.138
456.92	0.138
457.38	0.137
457.84	0.136
458.30	0.139
458.75	0.137
459.21	0.136
459.67	0.136
460.13	0.137
460.59	0.135
461.04	0.137
461.50	0.134
461.96	0.136
462.42	0.136
462.88	0.134
463.33	0.136
463.79	0.135
464.25	0.134
464.71	0.137
465.17	0.137
465.62	0.135
466.08	0.138
466.54	0.139
467.00	0.136
467.46	0.138
467.91	0.139
468.37	0.136
468.83	0.136
469.29	0.136
469.74	0.135
470.20	0.138
470.66	0.135
471.12	0.136
471.57	0.134
472.03	0.136
472.49	0.137
472.95	0.140
473.40	0.138
473.86	0.136
474.32	0.135
474.78	0.138
475.23	0.138
475.69	0.136
476.15	0.138
476.60	0.138
477.06	0.138
477.52	0.134
477.98	0.138
478.43	0.136
478.89	0.135
479.35	0.139
479.80	0.137
480.26	0.133
480.72	0.137
481.18	0.137
481.63	0.138
482.09	0.137
482.55	0.135
483.00	0.133
483.46	0.135
483.92	0.135
484.37	0.135
484.83	0.133
485.29	0.135
485.74	0.134
486.20	0.136
486.66	0.136
487.11	0.136
487.57	0.136
488.03	0.135
488.48	0.137
488.94	0.134
489.40	0.135
489.85	0.135
490.31	0.134
490.77	0.133
491.22	0.135
491.68	0.134
492.13	0.136
492.59	0.136
493.05	0.136
493.50	0.133
493.96	0.132
494.42	0.137
494.87	0.135
495.33	0.132
495.78	0.134
496.24	0.136
496.70	0.137
497.15	0.134
497.61	0.134
498.06	0.132
498.52	0.135
498.98	0.133
499.43	0.134
499.89	0.135
500.34	0.134
500.80	0.134
501.25	0.131
501.71	0.132
502.17	0.133
502.62	0.132
503.08	0.131
503.53	0.133
503.99	0.133
504.44	0.135
504.90	0.131
505.36	0.132
505.81	0.134
506.27	0.130
506.72	0.131
507.18	0.132
507.63	0.131
508.09	0.131
508.54	0.130
509.00	0.133
509.45	0.131
509.91	0.130
510.36	0.132
510.82	0.135
511.27	0.132
511.73	0.132
512.19	0.132
512.64	0.130
513.10	0.132
513.55	0.131
514.01	0.133
514.46	0.132
514.92	0.132
515.37	0.132
515.83	0.131
516.28	0.131
516.73	0.132
517.19	0.130
517.64	0.131
518.10	0.133
518.55	0.132
519.01	0.131
519.46	0.130
519.92	0.129
520.37	0.130
520.83	0.131
521.28	0.130
521.74	0.130
522.19	0.129
522.65	0.129
523.10	0.130
523.55	0.130
524.01	0.129
524.46	0.131
524.92	0.127
525.37	0.130
525.83	0.131
526.28	0.129
526.73	0.130
527.19	0.129
527.64	0.130
528.10	0.131
528.55	0.130
529.01	0.133
529.46	0.131
529.91	0.128
530.37	0.131
530.82	0.131
531.28	0.129
531.73	0.132
532.18	0.132
532.64	0.130
533.09	0.132
533.54	0.129
534.00	0.131
534.45	0.130
534.91	0.128
535.36	0.130
535.81	0.130
536.27	0.130
536.72	0.129
537.17	0.132
537.63	0.131
538.08	0.134
538.54	0.134
538.99	0.133
539.44	0.132
539.90	0.134
540.35	0.133
540.80	0.132
541.26	0.132
541.71	0.134
542.16	0.135
542.62	0.139
543.07	0.135
543.52	0.135
543.98	0.134
544.43	0.134
544.88	0.134
545.34	0.137
545.79	0.135
546.24	0.135
546.69	0.136
547.15	0.136
547.60	0.136
548.05	0.139
548.51	0.138
548.96	0.138
549.41	0.138
549.86	0.139
550.32	0.139
550.77	0.139
551.22	0.138
551.68	0.140
552.13	0.139
552.58	0.141
553.03	0.142
553.49	0.141
553.94	0.140
554.39	0.142
554.84	0.145
555.30	0.143
555.75	0.142
556.20	0.145
556.65	0.144
557.11	0.146
557.56	0.145
558.01	0.147
558.46	0.147
558.92	0.148
559.37	0.151
559.82	0.150
560.27	0.147
560.72	0.151
561.18	0.149
561.63	0.149
562.08	0.151
562.53	0.150
562.99	0.152
563.44	0.152
563.89	0.154
564.34	0.152
564.79	0.155
565.25	0.156
565.70	0.156
566.15	0.158
566.60	0.158
567.05	0.157
567.50	0.159
567.96	0.160
568.41	0.160
568.86	0.160
569.31	0.162
569.76	0.161
570.21	0.164
570.67	0.161
571.12	0.163
571.57	0.163
572.02	0.167
572.47	0.165
572.92	0.168
573.37	0.169
573.83	0.168
574.28	0.169
574.73	0.169
575.18	0.171
575.63	0.171
576.08	0.172
576.53	0.170
576.98	0.174
577.44	0.177
577.89	0.175
578.34	0.178
578.79	0.177
579.24	0.179
579.69	0.178
580.14	0.179
580.59	0.181
581.04	0.182
581.49	0.182
581.95	0.184
582.40	0.187
582.85	0.188
583.30	0.189
583.75	0.190
584.20	0.192
584.65	0.194
585.10	0.196
585.55	0.197
586.00	0.197
586.45	0.199
586.90	0.201
587.35	0.202
587.80	0.204
588.25	0.205
588.71	0.207
589.16	0.211
589.61	0.209
590.06	0.211
590.51	0.213
590.96	0.214
591.41	0.217
591.86	0.221
592.31	0.220
592.76	0.221
593.21	0.222
593.66	0.228
594.11	0.228
594.56	0.230
595.01	0.233
595.46	0.232
595.91	0.235
596.36	0.238
596.81	0.241
597.26	0.240
597.71	0.242
598.16	0.246
598.61	0.248
599.06	0.248
599.51	0.248
599.96	0.253
600.41	0.252
600.86	0.257
601.31	0.258
601.76	0.261
602.21	0.264
602.65	0.266
603.10	0.267
603.55	0.268
604.00	0.271
604.45	0.272
604.90	0.272
605.35	0.277
605.80	0.277
606.25	0.277
606.70	0.282
607.15	0.281
607.60	0.283
608.05	0.285
608.50	0.286
608.95	0.288
609.39	0.289
609.84	0.290
610.29	0.292
610.74	0.292
611.19	0.291
611.64	0.295
612.09	0.295
612.54	0.296
612.99	0.297
613.44	0.300
613.88	0.299
614.33	0.299
614.78	0.304
615.23	0.303
615.68	0.304
616.13	0.301
616.58	0.304
617.03	0.305
617.47	0.305
617.92	0.308
618.37	0.307
618.82	0.307
619.27	0.309
619.72	0.309
620.17	0.309
620.61	0.309
621.06	0.310
621.51	0.310
621.96	0.311
622.41	0.311
622.86	0.311
623.30	0.315
623.75	0.315
624.20	0.316
624.65	0.316
625.10	0.316
625.54	0.316
625.99	0.317
626.44	0.319
626.89	0.318
627.34	0.320
627.78	0.322
628.23	0.322
628.68	0.324
629.13	0.325
629.58	0.327
630.02	0.329
630.47	0.330
630.92	0.332
631.37	0.333
631.81	0.335
632.26	0.337
632.71	0.340
633.16	0.339
633.61	0.341
634.05	0.343
634.50	0.343
634.95	0.346
635.40	0.348
635.84	0.352
636.29	0.353
636.74	0.357
637.18	0.359
637.63	0.359
638.08	0.363
638.53	0.365
638.97	0.368
639.42	0.371
639.87	0.373
640.32	0.376
640.76	0.380
641.21	0.379
641.66	0.384
642.10	0.387
642.55	0.390
643.00	0.394
643.44	0.395
643.89	0.398
644.34	0.402
644.79	0.406
645.23	0.409
645.68	0.410
646.13	0.416
646.57	0.418
647.02	0.421
647.47	0.423
647.91	0.427
648.36	0.429
648.81	0.434
649.25	0.435
649.70	0.439
650.15	0.442
650.59	0.446
651.04	0.448
651.48	0.449
651.93	0.455
652.38	0.458
652.82	0.460
653.27	0.461
653.72	0.463
654.16	0.466
654.61	0.468
655.06	0.472
655.50	0.472
655.95	0.471
656.39	0.473
656.84	0.482
657.29	0.485
657.73	0.487
658.18	0.487
658.62	0.487
659.07	0.491
659.52	0.491
659.96	0.496
660.41	0.497
660.85	0.497
661.30	0.497
661.74	0.501
662.19	0.501
662.64	0.500
663.08	0.501
663.53	0.502
663.97	0.504
664.42	0.504
664.86	0.503
665.31	0.505
665.75	0.503
666.20	0.500
666.65	0.501
667.09	0.501
667.54	0.499
667.98	0.496
668.43	0.499
668.87	0.494
669.32	0.491
669.76	0.486
670.21	0.486
670.65	0.483
671.10	0.478
671.54	0.472
671.99	0.469
672.43	0.463
672.88	0.457
673.32	0.452
673.77	0.449
674.21	0.443
674.66	0.434
675.10	0.428
675.55	0.422
675.99	0.417
676.44	0.407
676.88	0.403
677.33	0.393
677.77	0.385
678.22	0.376
678.66	0.373
679.11	0.364
679.55	0.356
679.99	0.347
680.44	0.339
680.88	0.330
681.33	0.325
681.77	0.315
682.22	0.307
682.66	0.300
683.11	0.290
683.55	0.285
683.99	0.279
684.44	0.271
684.88	0.264
685.33	0.256
685.77	0.248
686.21	0.242
686.66	0.236
687.10	0.229
687.55	0.223
687.99	0.217
688.44	0.212
688.88	0.203
689.32	0.201
689.77	0.197
690.21	0.191
690.65	0.185
691.10	0.181
691.54	0.177
691.99	0.172
692.43	0.168
692.87	0.164
693.32	0.160
693.76	0.156
694.20	0.153
694.65	0.151
695.09	0.145
695.53	0.143
695.98	0.141
696.42	0.142
696.86	0.137
697.31	0.136
697.75	0.133
698.19	0.132
698.64	0.128
699.08	0.126
699.52	0.125
699.97	0.121
700.41	0.119
700.85	0.122
701.30	0.116
701.74	0.116
702.18	0.113
702.63	0.111
703.07	0.108
703.51	0.109
703.96	0.110
704.40	0.108
704.84	0.108
705.28	0.106
705.73	0.106
706.17	0.102
706.61	0.106
707.06	0.103
707.50	0.103
707.94	0.102
708.38	0.099
708.83	0.101
709.27	0.099
709.71	0.098
710.15	0.098
710.60	0.098
711.04	0.095
711.48	0.096
711.92	0.098
712.37	0.097
712.81	0.096
713.25	0.096
713.69	0.093
714.13	0.092
714.58	0.095
715.02	0.092
715.46	0.093
715.90	0.095
716.35	0.093
716.79	0.094
717.23	0.095
717.67	0.094
718.11	0.090
718.56	0.093
719.00	0.092
719.44	0.092
719.88	0.094
720.32	0.092
720.76	0.090
721.21	0.092
721.65	0.092
722.09	0.091
722.53	0.093
722.97	0.090
723.41	0.092
723.86	0.089
724.30	0.090
724.74	0.092
725.18	0.091
725.62	0.091
726.06	0.092
726.50	0.093
726.95	0.091
727.39	0.094
727.83	0.090
728.27	0.091
728.71	0.093
729.15	0.092
729.59	0.089
730.03	0.094
730.48	0.090
730.92	0.093
731.36	0.089
731.80	0.092
732.24	0.095
732.68	0.091
733.12	0.093
733.56	0.092
734.00	0.095
734.44	0.094
734.89	0.092
735.33	0.090
735.77	0.094
736.21	0.092
736.65	0.091
737.09	0.095
737.53	0.094
737.97	0.094
738.41	0.092
738.85	0.095
739.29	0.093
739.73	0.093
740.17	0.092
740.61	0.092
741.05	0.096
741.49	0.094
741.93	0.093
742.37	0.094
742.81	0.095
743.26	0.092
743.70	0.094
744.14	0.092
744.58	0.093
745.02	0.093
745.46	0.094
745.90	0.092
746.34	0.092
746.78	0.095
747.22	0.095
747.66	0.091
748.10	0.092
748.54	0.093
748.98	0.094
749.42	0.094
749.86	0.095
750.29	0.092
750.73	0.094
751.17	0.093
751.61	0.092
752.05	0.094
752.49	0.094
752.93	0.090
753.37	0.094
753.81	0.093
754.25	0.092
754.69	0.096
755.13	0.095
755.57	0.092
756.01	0.090
756.45	0.090
756.89	0.092
757.33	0.089
757.77	0.092
758.21	0.093
758.64	0.091
759.08	0.091
759.52	0.090
759.96	0.092
760.40	0.089
760.84	0.088
761.28	0.090
761.72	0.092
762.16	0.088
762.60	0.092
763.03	0.092
763.47	0.090
763.91	0.093
764.35	0.089
764.79	0.091
765.23	0.092
765.67	0.090
766.11	0.091
766.54	0.092
766.98	0.088
767.42	0.092
767.86	0.094
768.30	0.089
768.74	0.089
769.17	0.092
769.61	0.089
770.05	0.090
770.49	0.092
770.93	0.090
771.37	0.090
771.80	0.088
772.24	0.088
772.68	0.091
773.12	0.088
773.56	0.089
774.00	0.091
774.43	0.090
774.87	0.086
775.31	0.090
775.75	0.091
776.19	0.090
776.62	0.089
777.06	0.088
777.50	0.088
777.94	0.088
778.37	0.092
778.81	0.091
779.25	0.090
779.69	0.089
780.13	0.087
780.56	0.087
781.00	0.089
781.44	0.089
781.88	0.091
782.31	0.087
782.75	0.088
783.19	0.089
783.63	0.090
784.06	0.092
784.50	0.087
784.94	0.090
785.37	0.087
785.81	0.090
786.25	0.091
786.69	0.092
787.12	0.088
787.56	0.091
788.00	0.090
788.43	0.088
788.87	0.086
789.31	0.092
789.75	0.090
790.18	0.087
790.62	0.090
791.06	0.089
791.49	0.090
791.93	0.089
792.37	0.087
792.80	0.091
793.24	0.089
793.68	0.089
794.11	0.092
794.55	0.090
794.99	0.085
795.42	0.088
795.86	0.093
796.30	0.091
796.73	0.087
797.17	0.087
797.61	0.089
798.04	0.088
798.48	0.087
798.91	0.089
799.35	0.090
799.79	0.087
800.22	0.090
800.66	0.090
801.10	0.093
801.53	0.094
801.97	0.089
802.40	0.085
802.84	0.086
803.28	0.084
803.71	0.090
804.15	0.092
804.58	0.091
805.02	0.089
805.46	0.087
805.89	0.088
806.33	0.087
806.76	0.087
807.20	0.087
807.63	0.088
808.07	0.090
808.51	0.088
808.94	0.089
809.38	0.085
809.81	0.091
810.25	0.089
810.68	0.087
811.12	0.089
811.55	0.089
811.99	0.091
812.42	0.088
812.86	0.091
813.29	0.086
813.73	0.092
814.17	0.082
814.60	0.086
815.04	0.088
815.47	0.087
815.91	0.081
816.34	0.090
816.78	0.096
817.21	0.093
817.65	0.088
818.08	0.088
818.52	0.091
818.95	0.089
819.39	0.091
819.82	0.092
820.25	0.092
820.69	0.093
821.12	0.096
821.56	0.091
821.99	0.088
822.43	0.092
822.86	0.090
823.30	0.088
823.73	0.091
824.17	0.093
824.60	0.090
825.04	0.088
825.47	0.085
825.90	0.089
826.34	0.089
826.77	0.089
827.21	0.092
827.64	0.090
828.08	0.095
828.51	0.091
828.94	0.090
829.38	0.090
829.81	0.093
830.25	0.096
830.68	0.093
831.11	0.093
831.55	0.092
831.98	0.098
832.42	0.096
832.85	0.095
833.28	0.099
833.72	0.097
834.15	0.100
834.58	0.094
835.02	0.096
835.45	0.095
835.88	0.095
836.32	0.098
836.75	0.097
837.19	0.098
837.62	0.093
838.05	0.099
838.49	0.095
838.92	0.097
839.35	0.094
839.79	0.093
840.22	0.096
840.65	0.095
841.09	0.096
841.52	0.099
841.95	0.095
842.39	0.093
842.82	0.100
843.25	0.102
843.68	0.097
844.12	0.099
844.55	0.097
844.98	0.094
845.42	0.094
845.85	0.097
846.28	0.098
846.71	0.095
847.15	0.094
847.58	0.101
848.01	0.100
848.45	0.091
848.88	0.096
849.31	0.095
849.74	0.100
850.18	0.098
850.61	0.103
851.04	0.098
851.47	0.095
851.91	0.096
852.34	0.100
852.77	0.096
853.20	0.100
853.64	0.097
854.07	0.098
854.50	0.098
854.93	0.096
855.36	0.099
855.80	0.099
856.23	0.101
856.66	0.101
857.09	0.105
857.52	0.102
857.96	0.096
858.39	0.102
858.82	0.103
859.25	0.099
859.68	0.096
860.12	0.101
860.55	0.097
860.98	0.101
861.41	0.101
861.84	0.103
862.27	0.105
862.71	0.104
863.14	0.102
863.57	0.101
864.00	0.100
864.43	0.098
864.86	0.105
865.30	0.100
865.73	0.098
866.16	0.100
866.59	0.110
867.02	0.099
867.45	0.099
867.88	0.106
868.31	0.102
868.75	0.097
869.18	0.104
869.61	0.107
870.04	0.104
870.47	0.100
870.90	0.108
871.33	0.100
871.76	0.097
872.19	0.102
872.62	0.107
873.06	0.106
873.49	0.102
873.92	0.107
874.35	0.102
874.78	0.109
875.21	0.107
875.64	0.103
876.07	0.107
876.50	0.103
876.93	0.102
877.36	0.109
877.79	0.109
878.22	0.102
878.65	0.109
879.08	0.109
879.51	0.102
879.94	0.105
880.37	0.110
880.80	0.105
881.23	0.106
881.67	0.104
882.10	0.109
882.53	0.105
882.96	0.112
883.39	0.114
883.82	0.109
884.25	0.105
884.68	0.107
885.11	0.110
885.54	0.113
885.97	0.103
886.39	0.107
886.82	0.108
887.25	0.113
887.68	0.110
888.11	0.107
888.54	0.107
888.97	0.104
889.40	0.110
889.83	0.110
890.26	0.113
890.69	0.108
891.12	0.109
891.55	0.107
891.98	0.111
892.41	0.106
892.84	0.111
893.27	0.111
893.70	0.107
894.13	0.109
894.56	0.111
894.98	0.110
895.41	0.112
895.84	0.116
896.27	0.109
896.70	0.110
897.13	0.108
897.56	0.111
897.99	0.109
898.42	0.110
898.85	0.114
899.27	0.111
899.70	0.114
900.13	0.110
900.56	0.113
900.99	0.110
901.42	0.108
901.85	0.113
902.28	0.115
902.70	0.111
903.13	0.111
903.56	0.116
903.99	0.110
904.42	0.112
904.85	0.114
905.27	0.114
905.70	0.114
906.13	0.113
906.56	0.113
906.99	0.113
907.42	0.110
907.84	0.111
908.27	0.119
908.70	0.109
909.13	0.110
909.56	0.110
909.98	0.115
910.41	0.109
910.84	0.113
911.27	0.111
911.70	0.113
912.12	0.111
912.55	0.111
912.98	0.109
913.41	0.112
913.84	0.111
914.26	0.111
914.69	0.110
915.12	0.113
915.55	0.107
915.97	0.113
916.40	0.112
916.83	0.109
917.26	0.113
917.68	0.115
918.11	0.113
918.54	0.113
918.97	0.114
919.39	0.114
919.82	0.114
920.25	0.111
920.67	0.112
921.10	0.114
921.53	0.115
921.96	0.111
922.38	0.113
922.81	0.116
923.24	0.115
923.66	0.115
924.09	0.115
924.52	0.117
924.94	0.115
925.37	0.120
925.80	0.118
926.22	0.121
926.65	0.123
927.08	0.118
927.50	0.124
927.93	0.127
928.36	0.123
928.78	0.123
929.21	0.125
929.64	0.128
930.06	0.126
930.49	0.129
930.92	0.129
931.34	0.130
931.77	0.129
932.20	0.129
932.62	0.127
933.05	0.125
933.47	0.128
933.90	0.133
934.33	0.134
934.75	0.135
935.18	0.135
935.61	0.138
936.03	0.139
936.46	0.138
936.88	0.143
937.31	0.146
937.73	0.147
938.16	0.147
938.59	0.148
939.01	0.155
939.44	0.158
939.86	0.155
940.29	0.154
940.71	0.161
941.14	0.159
941.57	0.159
941.99	0.165
942.42	0.167
942.84	0.165
943.27	0.171
943.69	0.177
944.12	0.175
944.54	0.179
944.97	0.175
945.39	0.184
945.82	0.182
946.24	0.174
946.67	0.186
947.09	0.183
947.52	0.190
947.94	0.193
948.37	0.192
948.79	0.191
949.22	0.200
949.64	0.201
950.07	0.195
950.49	0.206
950.92	0.206
951.34	0.210
951.77	0.210
952.19	0.210
952.62	0.212
953.04	0.211
953.47	0.220
953.89	0.228
954.32	0.227
954.74	0.232
955.17	0.232
955.59	0.235
956.01	0.241
956.44	0.238
956.86	0.245
957.29	0.248
957.71	0.253
958.14	0.252
958.56	0.259
958.98	0.260
959.41	0.254
959.83	0.257
960.26	0.264
960.68	0.262
961.10	0.266
961.53	0.264
961.95	0.269
962.38	0.273
962.80	0.263
963.22	0.269
963.65	0.271
964.07	0.274
964.50	0.273
964.92	0.272
965.34	0.276
965.77	0.274
966.19	0.274
966.61	0.272
967.04	0.279
967.46	0.275
967.88	0.272
968.31	0.272
968.73	0.272
969.15	0.272
969.58	0.274
970.00	0.273
970.42	0.280
970.85	0.281
971.27	0.280
971.69	0.277
972.12	0.270
972.54	0.284
972.96	0.280
973.39	0.279
973.81	0.287
974.23	0.285
974.65	0.279
975.08	0.281
975.50	0.282
975.92	0.279
976.35	0.285
976.77	0.284
977.19	0.280
977.61	0.277
978.04	0.282
978.46	0.275
978.88	0.277
979.30	0.277
979.73	0.284
980.15	0.282
980.57	0.284
980.99	0.285
981.42	0.275
981.84	0.282
982.26	0.284
982.68	0.286
983.11	0.281
983.53	0.281
983.95	0.277
984.37	0.277
984.79	0.283
985.22	0.272
985.64	0.279
986.06	0.269
986.48	0.278
986.90	0.274
987.33	0.276
987.75	0.277
988.17	0.274
988.59	0.275
989.01	0.266
989.43	0.271
989.86	0.274
990.28	0.262
990.70	0.268
991.12	0.269
991.54	0.271
991.96	0.270
992.39	0.266
992.81	0.268
993.23	0.267
993.65	0.266
994.07	0.264
994.49	0.270
994.91	0.267
995.34	0.264
995.76	0.260
996.18	0.264
996.60	0.257
997.02	0.264
997.44	0.263
997.86	0.261
998.28	0.253
998.70	0.261
999.12	0.256
999.55	0.259
999.97	0.256
1000.39	0.258
1000.81	0.254
1001.23	0.247
1001.65	0.252
1002.07	0.247
1002.49	0.252
1002.91	0.249
1003.33	0.243
1003.75	0.255
1004.17	0.246
1004.59	0.250
1005.01	0.250
1005.43	0.244
1005.85	0.246
1006.28	0.235
1006.70	0.246
1007.12	0.245
1007.54	0.245
1007.96	0.235
1008.38	0.240
1008.80	0.246
1009.22	0.241
1009.64	0.242
1010.06	0.242
1010.48	0.233
1010.90	0.239
1011.32	0.240
1011.74	0.235
1012.16	0.233
1012.58	0.240
1013.00	0.230
1013.42	0.233
1013.84	0.229
1014.26	0.225
1014.67	0.235
1015.09	0.223
1015.51	0.230
1015.93	0.224
1016.35	0.220
1016.77	0.225
1017.19	0.228
1017.61	0.219
1018.03	0.214
1018.45	0.224
1018.87	0.222
1019.29	0.205
1019.71	0.214
1020.13	0.218
1020.55	0.218
1020.97	0.209
1021.38	0.199
1021.80	0.207
1022.22	0.210
1022.64	0.207
1023.06	0.217
1023.48	0.210
1023.90	0.206
1024.32	0.202
1024.74	0.195
1025.15	0.201
1025.57	0.206
1025.99	0.209
1026.41	0.210
1026.83	0.214
1027.25	0.205
1027.67	0.196
1028.08	0.197
1028.50	0.200
1028.92	0.194
1029.34	0.196
1029.76	0.202
1030.18	0.190
1030.60	0.206
1031.01	0.194
1031.43	0.189
1031.85	0.194
1032.27	0.196
1032.69	0.191
1033.10	0.206
1033.52	0.191
1033.94	0.185
1034.36	0.196
1034.78	0.193
1035.19	0.188
1035.61	0.197
1036.03	0.188
1036.45	0.185
1036.87	0.186
1037.28	0.176
1037.70	0.179
1038.12	0.195
1038.54	0.186
1038.95	0.188
1039.37	0.181
1039.79	0.173
1040.21	0.172
1040.62	0.157
1041.04	0.189
1041.46	0.200
1041.88	0.189
1042.29	0.178
1042.71	0.190
1043.13	0.159
1043.55	0.186
1043.96	0.165
1044.38	0.162
1044.80	0.196
1045.21	0.186
1045.63	0.183
1046.05	0.184
1046.47	0.183
1046.88	0.180
1047.30	0.182
1047.72	0.170
1048.13	0.156
1048.55	0.192
1048.97	0.188
1049.38	0.190
1049.80	0.145
1050.22	0.188
1050.63	0.186
1051.05	0.174
1051.47	0.189
1051.88	0.176
1052.30	0.170
1052.72	0.177
1053.13	0.185
1053.55	0.176
1053.97	0.198
1054.38	0.174
1054.80	0.182
1055.21	0.190
1055.63	0.182
1056.05	0.171
1056.46	0.198
1056.88	0.219
1057.29	0.176
1057.71	0.203
1058.13	0.186
1058.54	0.188
1058.96	0.180
1059.37	0.228
1059.79	0.274
1060.21	0.203
1060.62	0.191
1061.04	0.242
1061.45	0.239
1061.87	0.239
1062.28	0.241
1062.70	0.224
1063.12	0.245
1063.53	0.203
1063.95	0.269
1064.36	0.274
1064.78	0.197
1065.19	0.205
1065.61	0.271
1066.02	0.244
1066.44	0.239
1066.85	0.331
1067.27	0.230
1067.68	0.191
1068.10	0.264
1068.51	0.296
1068.93	0.239
1069.35	0.275
1069.76	0.299
1070.17	0.323
1070.59	0.233
1071.00	0.286
1071.42	0.314
1071.83	0.340
1072.25	0.379
1072.66	0.322
1073.08	0.406
1073.49	0.383
1073.91	0.291
1074.32	0.696
1074.74	0.430
1075.15	0.352
1075.57	0.659
1075.98	0.617
1076.40	0.499
1076.81	0.560
1077.22	0.605
1077.64	0.829
1078.05	0.819
1078.47	0.280
1078.88	0.959
1079.30	0.539
1079.71	0.587
1080.12	0.862
1080.54	-0.000
1080.95	1.226
1081.37	1.143
1081.78	-0.000
1082.19	-0.000
1082.61	1.260
1083.02	-0.000
1083.44	-0.000
1083.85	-0.000
1084.26	0.429
1084.68	-0.000
1085.09	-0.000
1085.50	2.199
1085.92	-0.000
1086.33	-0.000
1086.74	-0.000
1087.16	-0.000
1087.57	-0.000
1087.98	-0.000
1088.40	-0.000
1088.81	-0.000
1089.22	-0.000
1089.64	-0.000
1090.05	-0.000
1090.46	-0.000
1090.88	-0.000
1091.29	-0.000
1091.70	-0.000
1092.12	-0.000
1092.53	-0.000
1092.94	-0.000
1093.36	-0.000
1093.77	-0.000
1094.18	-0.000
1094.59	-0.000
1095.01	-0.000
1095.42	-0.000
1095.83	-0.000
1096.25	1.099
1096.66	-0.000
1097.07	-0.000
1097.48	-0.000
1097.90	-0.000
1098.31	-0.000
1098.72	-0.000
1099.13	1.620
>>>>>End Processed Spectral Data<<<<<
