SpectraSuite Data File
++++++++++++++++++++++++++++++++++++
Date: Wed May 04 13:45:57 CEST 2016
User: spectrasuite
Dark Spectrum Present: Yes
Reference Spectrum Present: Yes
Number of Sampled Component Spectra: 1
Spectrometers: HR+C0708
Integration Time (usec): 1000 (HR+C0708)
Spectra Averaged: 10 (HR+C0708)
Boxcar Smoothing: 0 (HR+C0708)
Correct for Electrical Dark: No (HR+C0708)
Strobe/Lamp Enabled: No (HR+C0708)
Correct for Detector Non-linearity: No (HR+C0708)
Correct for Stray Light: No (HR+C0708)
Number of Pixels in Processed Spectrum: 2048
>>>>>Begin Processed Spectral Data<<<<<
188.76	0.403
189.23	-0.000
189.70	0.631
190.17	-0.000
190.64	-0.000
191.12	-0.000
191.59	-0.000
192.06	-0.000
192.53	-0.000
193.01	-0.000
193.48	0.612
193.95	-0.000
194.42	-0.000
194.90	-0.000
195.37	-0.000
195.84	-0.000
196.31	0.850
196.78	-0.000
197.26	-0.000
197.73	-0.000
198.20	0.192
198.67	-0.000
199.14	-0.000
199.62	-0.000
200.09	0.845
200.56	0.968
201.03	0.736
201.50	0.470
201.97	0.591
202.45	0.631
202.92	0.871
203.39	1.061
203.86	0.700
204.33	0.719
204.80	0.724
205.28	0.499
205.75	0.966
206.22	0.706
206.69	0.575
207.16	0.572
207.63	0.687
208.11	0.927
208.58	0.547
209.05	1.079
209.52	0.928
209.99	0.519
210.46	0.591
210.93	0.843
211.41	0.704
211.88	0.450
212.35	0.614
212.82	1.316
213.29	0.660
213.76	0.851
214.23	0.809
214.70	0.910
215.18	0.726
215.65	0.510
216.12	0.661
216.59	0.657
217.06	0.390
217.53	0.872
218.00	1.054
218.47	0.653
218.94	0.605
219.41	0.466
219.89	0.576
220.36	0.625
220.83	0.655
221.30	0.729
221.77	0.747
222.24	0.650
222.71	0.700
223.18	0.800
223.65	0.548
224.12	0.666
224.59	0.598
225.06	0.981
225.54	0.747
226.01	1.045
226.48	1.027
226.95	1.066
227.42	0.934
227.89	1.437
228.36	1.676
228.83	1.124
229.30	1.515
229.77	1.389
230.24	1.234
230.71	1.363
231.18	1.338
231.65	1.575
232.12	1.532
232.59	1.697
233.06	1.794
233.53	1.876
234.00	1.539
234.47	1.807
234.94	2.050
235.41	1.777
235.88	1.780
236.35	2.118
236.82	2.100
237.29	2.164
237.76	1.997
238.23	2.646
238.70	2.178
239.17	1.909
239.64	2.685
240.11	2.286
240.58	2.024
241.05	2.438
241.52	2.283
241.99	2.353
242.46	2.273
242.93	2.170
243.40	2.877
243.87	2.438
244.34	2.190
244.81	2.438
245.28	2.456
245.75	2.337
246.22	2.580
246.69	3.118
247.16	2.360
247.63	2.433
248.10	2.527
248.57	3.272
249.04	2.400
249.51	2.379
249.98	2.873
250.45	2.711
250.92	2.518
251.39	2.468
251.85	2.439
252.32	2.138
252.79	2.073
253.26	2.020
253.73	1.922
254.20	1.810
254.67	1.753
255.14	1.728
255.61	1.609
256.08	1.557
256.55	1.523
257.02	1.468
257.49	1.411
257.95	1.391
258.42	1.336
258.89	1.307
259.36	1.279
259.83	1.243
260.30	1.220
260.77	1.195
261.24	1.163
261.71	1.149
262.17	1.131
262.64	1.113
263.11	1.092
263.58	1.076
264.05	1.059
264.52	1.044
264.99	1.027
265.46	1.014
265.92	1.003
266.39	0.991
266.86	0.980
267.33	0.971
267.80	0.953
268.27	0.951
268.74	0.938
269.20	0.926
269.67	0.921
270.14	0.907
270.61	0.897
271.08	0.890
271.55	0.882
272.01	0.879
272.48	0.867
272.95	0.862
273.42	0.856
273.89	0.850
274.36	0.840
274.82	0.839
275.29	0.834
275.76	0.828
276.23	0.822
276.70	0.816
277.16	0.819
277.63	0.811
278.10	0.801
278.57	0.800
279.04	0.800
279.50	0.792
279.97	0.792
280.44	0.793
280.91	0.792
281.38	0.790
281.84	0.783
282.31	0.787
282.78	0.783
283.25	0.782
283.72	0.783
284.18	0.781
284.65	0.783
285.12	0.781
285.59	0.781
286.05	0.783
286.52	0.780
286.99	0.780
287.46	0.782
287.92	0.783
288.39	0.780
288.86	0.785
289.33	0.780
289.79	0.777
290.26	0.780
290.73	0.779
291.20	0.773
291.66	0.774
292.13	0.772
292.60	0.765
293.07	0.763
293.53	0.756
294.00	0.753
294.47	0.748
294.93	0.743
295.40	0.736
295.87	0.732
296.34	0.724
296.80	0.714
297.27	0.703
297.74	0.691
298.20	0.690
298.67	0.679
299.14	0.670
299.60	0.659
300.07	0.647
300.54	0.646
301.01	0.636
301.47	0.624
301.94	0.615
302.41	0.605
302.87	0.597
303.34	0.592
303.81	0.579
304.27	0.578
304.74	0.566
305.21	0.555
305.67	0.550
306.14	0.543
306.61	0.538
307.07	0.528
307.54	0.523
308.01	0.516
308.47	0.512
308.94	0.505
309.40	0.502
309.87	0.498
310.34	0.494
310.80	0.491
311.27	0.481
311.74	0.481
312.20	0.479
312.67	0.473
313.13	0.470
313.60	0.467
314.07	0.464
314.53	0.461
315.00	0.453
315.47	0.456
315.93	0.458
316.40	0.452
316.86	0.446
317.33	0.448
317.80	0.445
318.26	0.442
318.73	0.440
319.19	0.440
319.66	0.435
320.13	0.432
320.59	0.429
321.06	0.432
321.52	0.427
321.99	0.426
322.45	0.422
322.92	0.422
323.39	0.420
323.85	0.417
324.32	0.419
324.78	0.412
325.25	0.411
325.71	0.411
326.18	0.409
326.64	0.406
327.11	0.400
327.58	0.400
328.04	0.401
328.51	0.396
328.97	0.399
329.44	0.394
329.90	0.388
330.37	0.387
330.83	0.389
331.30	0.384
331.76	0.385
332.23	0.382
332.69	0.379
333.16	0.376
333.62	0.372
334.09	0.373
334.56	0.366
335.02	0.364
335.49	0.362
335.95	0.359
336.42	0.358
336.88	0.354
337.35	0.347
337.81	0.350
338.28	0.350
338.74	0.352
339.20	0.353
339.67	0.352
340.13	0.350
340.60	0.346
341.06	0.342
341.53	0.337
341.99	0.339
342.46	0.337
342.92	0.335
343.39	0.331
343.85	0.329
344.32	0.330
344.78	0.329
345.25	0.335
345.71	0.334
346.17	0.333
346.64	0.334
347.10	0.330
347.57	0.324
348.03	0.316
348.50	0.316
348.96	0.315
349.43	0.317
349.89	0.317
350.35	0.314
350.82	0.310
351.28	0.308
351.75	0.299
352.21	0.311
352.67	0.299
353.14	0.301
353.60	0.293
354.07	0.290
354.53	0.285
355.00	0.286
355.46	0.283
355.92	0.279
356.39	0.280
356.85	0.271
357.31	0.266
357.78	0.260
358.24	0.257
358.71	0.256
359.17	0.252
359.63	0.247
360.10	0.239
360.56	0.234
361.03	0.231
361.49	0.227
361.95	0.220
362.42	0.214
362.88	0.213
363.34	0.209
363.81	0.200
364.27	0.198
364.73	0.194
365.20	0.191
365.66	0.188
366.12	0.188
366.59	0.179
367.05	0.181
367.51	0.176
367.98	0.176
368.44	0.174
368.90	0.171
369.37	0.171
369.83	0.171
370.29	0.169
370.76	0.166
371.22	0.166
371.68	0.168
372.15	0.164
372.61	0.161
373.07	0.163
373.54	0.161
374.00	0.161
374.46	0.162
374.92	0.163
375.39	0.161
375.85	0.162
376.31	0.159
376.78	0.160
377.24	0.158
377.70	0.159
378.16	0.157
378.63	0.159
379.09	0.158
379.55	0.156
380.01	0.157
380.48	0.159
380.94	0.155
381.40	0.156
381.87	0.158
382.33	0.156
382.79	0.152
383.25	0.153
383.72	0.156
384.18	0.153
384.64	0.156
385.10	0.152
385.56	0.153
386.03	0.154
386.49	0.154
386.95	0.152
387.41	0.153
387.88	0.149
388.34	0.149
388.80	0.150
389.26	0.150
389.72	0.150
390.19	0.149
390.65	0.148
391.11	0.149
391.57	0.148
392.04	0.149
392.50	0.150
392.96	0.147
393.42	0.146
393.88	0.147
394.34	0.146
394.81	0.149
395.27	0.146
395.73	0.143
396.19	0.146
396.65	0.144
397.12	0.143
397.58	0.144
398.04	0.140
398.50	0.143
398.96	0.145
399.42	0.145
399.89	0.146
400.35	0.145
400.81	0.142
401.27	0.143
401.73	0.140
402.19	0.142
402.65	0.135
403.12	0.140
403.58	0.139
404.04	0.136
404.50	0.136
404.96	0.136
405.42	0.140
405.88	0.137
406.34	0.139
406.81	0.136
407.27	0.135
407.73	0.131
408.19	0.134
408.65	0.133
409.11	0.134
409.57	0.132
410.03	0.134
410.49	0.135
410.96	0.133
411.42	0.133
411.88	0.130
412.34	0.128
412.80	0.132
413.26	0.132
413.72	0.131
414.18	0.131
414.64	0.129
415.10	0.129
415.56	0.130
416.02	0.128
416.48	0.128
416.95	0.129
417.41	0.127
417.87	0.128
418.33	0.127
418.79	0.126
419.25	0.129
419.71	0.127
420.17	0.126
420.63	0.122
421.09	0.125
421.55	0.126
422.01	0.128
422.47	0.128
422.93	0.129
423.39	0.126
423.85	0.127
424.31	0.127
424.77	0.125
425.23	0.126
425.69	0.126
426.15	0.127
426.61	0.126
427.07	0.122
427.53	0.125
427.99	0.123
428.45	0.124
428.91	0.121
429.37	0.123
429.83	0.122
430.29	0.126
430.75	0.124
431.21	0.123
431.67	0.125
432.13	0.123
432.59	0.120
433.05	0.123
433.51	0.120
433.97	0.119
434.43	0.122
434.89	0.123
435.35	0.121
435.81	0.123
436.27	0.122
436.73	0.121
437.19	0.122
437.65	0.118
438.11	0.120
438.57	0.120
439.03	0.122
439.48	0.122
439.94	0.120
440.40	0.120
440.86	0.119
441.32	0.120
441.78	0.120
442.24	0.119
442.70	0.120
443.16	0.119
443.62	0.122
444.08	0.117
444.54	0.119
444.99	0.120
445.45	0.118
445.91	0.118
446.37	0.119
446.83	0.118
447.29	0.118
447.75	0.119
448.21	0.123
448.67	0.116
449.12	0.121
449.58	0.119
450.04	0.119
450.50	0.119
450.96	0.116
451.42	0.120
451.88	0.118
452.34	0.116
452.79	0.116
453.25	0.118
453.71	0.117
454.17	0.115
454.63	0.117
455.09	0.117
455.55	0.119
456.00	0.114
456.46	0.117
456.92	0.116
457.38	0.116
457.84	0.116
458.30	0.117
458.75	0.118
459.21	0.115
459.67	0.116
460.13	0.117
460.59	0.118
461.04	0.118
461.50	0.118
461.96	0.116
462.42	0.117
462.88	0.115
463.33	0.116
463.79	0.117
464.25	0.115
464.71	0.118
465.17	0.115
465.62	0.114
466.08	0.116
466.54	0.119
467.00	0.116
467.46	0.115
467.91	0.117
468.37	0.117
468.83	0.114
469.29	0.117
469.74	0.117
470.20	0.116
470.66	0.115
471.12	0.116
471.57	0.117
472.03	0.115
472.49	0.117
472.95	0.115
473.40	0.117
473.86	0.117
474.32	0.113
474.78	0.116
475.23	0.119
475.69	0.116
476.15	0.118
476.60	0.118
477.06	0.119
477.52	0.116
477.98	0.117
478.43	0.118
478.89	0.116
479.35	0.117
479.80	0.118
480.26	0.116
480.72	0.117
481.18	0.115
481.63	0.117
482.09	0.118
482.55	0.114
483.00	0.114
483.46	0.115
483.92	0.114
484.37	0.115
484.83	0.114
485.29	0.115
485.74	0.115
486.20	0.116
486.66	0.117
487.11	0.114
487.57	0.114
488.03	0.113
488.48	0.117
488.94	0.114
489.40	0.114
489.85	0.113
490.31	0.115
490.77	0.113
491.22	0.117
491.68	0.115
492.13	0.113
492.59	0.117
493.05	0.115
493.50	0.113
493.96	0.114
494.42	0.116
494.87	0.117
495.33	0.112
495.78	0.114
496.24	0.114
496.70	0.116
497.15	0.112
497.61	0.114
498.06	0.114
498.52	0.115
498.98	0.113
499.43	0.113
499.89	0.116
500.34	0.113
500.80	0.113
501.25	0.113
501.71	0.112
502.17	0.113
502.62	0.113
503.08	0.111
503.53	0.112
503.99	0.112
504.44	0.114
504.90	0.111
505.36	0.113
505.81	0.114
506.27	0.113
506.72	0.112
507.18	0.112
507.63	0.111
508.09	0.112
508.54	0.109
509.00	0.111
509.45	0.113
509.91	0.112
510.36	0.112
510.82	0.113
511.27	0.111
511.73	0.112
512.19	0.111
512.64	0.111
513.10	0.112
513.55	0.109
514.01	0.112
514.46	0.113
514.92	0.112
515.37	0.112
515.83	0.109
516.28	0.110
516.73	0.111
517.19	0.112
517.64	0.113
518.10	0.112
518.55	0.112
519.01	0.111
519.46	0.111
519.92	0.109
520.37	0.109
520.83	0.111
521.28	0.110
521.74	0.110
522.19	0.110
522.65	0.108
523.10	0.109
523.55	0.110
524.01	0.108
524.46	0.110
524.92	0.110
525.37	0.111
525.83	0.110
526.28	0.109
526.73	0.108
527.19	0.109
527.64	0.108
528.10	0.109
528.55	0.111
529.01	0.111
529.46	0.110
529.91	0.110
530.37	0.110
530.82	0.110
531.28	0.109
531.73	0.109
532.18	0.110
532.64	0.109
533.09	0.112
533.54	0.110
534.00	0.112
534.45	0.111
534.91	0.107
535.36	0.111
535.81	0.110
536.27	0.109
536.72	0.110
537.17	0.112
537.63	0.111
538.08	0.114
538.54	0.113
538.99	0.113
539.44	0.112
539.90	0.113
540.35	0.112
540.80	0.110
541.26	0.114
541.71	0.117
542.16	0.114
542.62	0.117
543.07	0.115
543.52	0.115
543.98	0.115
544.43	0.115
544.88	0.115
545.34	0.116
545.79	0.118
546.24	0.116
546.69	0.116
547.15	0.117
547.60	0.117
548.05	0.118
548.51	0.119
548.96	0.120
549.41	0.119
549.86	0.119
550.32	0.122
550.77	0.120
551.22	0.121
551.68	0.124
552.13	0.122
552.58	0.124
553.03	0.122
553.49	0.124
553.94	0.122
554.39	0.125
554.84	0.126
555.30	0.125
555.75	0.127
556.20	0.126
556.65	0.126
557.11	0.129
557.56	0.128
558.01	0.130
558.46	0.127
558.92	0.132
559.37	0.130
559.82	0.130
560.27	0.132
560.72	0.134
561.18	0.133
561.63	0.135
562.08	0.135
562.53	0.134
562.99	0.136
563.44	0.137
563.89	0.136
564.34	0.137
564.79	0.139
565.25	0.139
565.70	0.139
566.15	0.139
566.60	0.142
567.05	0.141
567.50	0.144
567.96	0.144
568.41	0.146
568.86	0.145
569.31	0.145
569.76	0.146
570.21	0.148
570.67	0.146
571.12	0.150
571.57	0.148
572.02	0.152
572.47	0.151
572.92	0.150
573.37	0.154
573.83	0.154
574.28	0.154
574.73	0.152
575.18	0.156
575.63	0.157
576.08	0.158
576.53	0.158
576.98	0.160
577.44	0.161
577.89	0.161
578.34	0.164
578.79	0.164
579.24	0.165
579.69	0.166
580.14	0.167
580.59	0.170
581.04	0.169
581.49	0.171
581.95	0.172
582.40	0.176
582.85	0.176
583.30	0.177
583.75	0.178
584.20	0.181
584.65	0.183
585.10	0.183
585.55	0.186
586.00	0.186
586.45	0.188
586.90	0.190
587.35	0.193
587.80	0.195
588.25	0.196
588.71	0.196
589.16	0.201
589.61	0.199
590.06	0.202
590.51	0.204
590.96	0.205
591.41	0.210
591.86	0.212
592.31	0.212
592.76	0.213
593.21	0.215
593.66	0.222
594.11	0.222
594.56	0.223
595.01	0.228
595.46	0.226
595.91	0.232
596.36	0.231
596.81	0.235
597.26	0.236
597.71	0.239
598.16	0.242
598.61	0.244
599.06	0.247
599.51	0.246
599.96	0.248
600.41	0.252
600.86	0.254
601.31	0.257
601.76	0.261
602.21	0.262
602.65	0.266
603.10	0.265
603.55	0.267
604.00	0.272
604.45	0.271
604.90	0.273
605.35	0.278
605.80	0.278
606.25	0.277
606.70	0.282
607.15	0.281
607.60	0.285
608.05	0.286
608.50	0.287
608.95	0.290
609.39	0.292
609.84	0.290
610.29	0.295
610.74	0.293
611.19	0.295
611.64	0.299
612.09	0.301
612.54	0.302
612.99	0.302
613.44	0.301
613.88	0.303
614.33	0.303
614.78	0.307
615.23	0.307
615.68	0.307
616.13	0.307
616.58	0.308
617.03	0.310
617.47	0.310
617.92	0.310
618.37	0.313
618.82	0.312
619.27	0.312
619.72	0.313
620.17	0.314
620.61	0.315
621.06	0.313
621.51	0.314
621.96	0.316
622.41	0.317
622.86	0.318
623.30	0.318
623.75	0.318
624.20	0.320
624.65	0.322
625.10	0.321
625.54	0.319
625.99	0.320
626.44	0.326
626.89	0.324
627.34	0.325
627.78	0.327
628.23	0.328
628.68	0.331
629.13	0.330
629.58	0.333
630.02	0.335
630.47	0.335
630.92	0.335
631.37	0.340
631.81	0.343
632.26	0.341
632.71	0.344
633.16	0.347
633.61	0.349
634.05	0.350
634.50	0.349
634.95	0.354
635.40	0.357
635.84	0.359
636.29	0.361
636.74	0.365
637.18	0.368
637.63	0.370
638.08	0.373
638.53	0.373
638.97	0.379
639.42	0.381
639.87	0.383
640.32	0.387
640.76	0.390
641.21	0.394
641.66	0.395
642.10	0.398
642.55	0.404
643.00	0.405
643.44	0.410
643.89	0.416
644.34	0.418
644.79	0.424
645.23	0.424
645.68	0.428
646.13	0.430
646.57	0.436
647.02	0.439
647.47	0.445
647.91	0.447
648.36	0.449
648.81	0.454
649.25	0.456
649.70	0.458
650.15	0.464
650.59	0.468
651.04	0.472
651.48	0.476
651.93	0.478
652.38	0.480
652.82	0.483
653.27	0.485
653.72	0.492
654.16	0.496
654.61	0.498
655.06	0.497
655.50	0.502
655.95	0.503
656.39	0.507
656.84	0.511
657.29	0.516
657.73	0.516
658.18	0.519
658.62	0.518
659.07	0.523
659.52	0.528
659.96	0.529
660.41	0.529
660.85	0.533
661.30	0.534
661.74	0.536
662.19	0.537
662.64	0.539
663.08	0.536
663.53	0.542
663.97	0.541
664.42	0.540
664.86	0.540
665.31	0.541
665.75	0.543
666.20	0.540
666.65	0.542
667.09	0.541
667.54	0.539
667.98	0.533
668.43	0.535
668.87	0.531
669.32	0.530
669.76	0.526
670.21	0.523
670.65	0.520
671.10	0.515
671.54	0.508
671.99	0.506
672.43	0.499
672.88	0.493
673.32	0.489
673.77	0.481
674.21	0.477
674.66	0.468
675.10	0.461
675.55	0.452
675.99	0.442
676.44	0.436
676.88	0.431
677.33	0.421
677.77	0.410
678.22	0.401
678.66	0.392
679.11	0.383
679.55	0.375
679.99	0.365
680.44	0.356
680.88	0.346
681.33	0.338
681.77	0.331
682.22	0.314
682.66	0.310
683.11	0.301
683.55	0.295
683.99	0.284
684.44	0.276
684.88	0.266
685.33	0.259
685.77	0.250
686.21	0.246
686.66	0.236
687.10	0.228
687.55	0.221
687.99	0.215
688.44	0.209
688.88	0.198
689.32	0.197
689.77	0.190
690.21	0.183
690.65	0.177
691.10	0.171
691.54	0.168
691.99	0.161
692.43	0.157
692.87	0.153
693.32	0.148
693.76	0.143
694.20	0.141
694.65	0.136
695.09	0.132
695.53	0.129
695.98	0.125
696.42	0.125
696.86	0.122
697.31	0.118
697.75	0.114
698.19	0.113
698.64	0.110
699.08	0.108
699.52	0.105
699.97	0.103
700.41	0.101
700.85	0.102
701.30	0.095
701.74	0.097
702.18	0.093
702.63	0.093
703.07	0.089
703.51	0.089
703.96	0.089
704.40	0.089
704.84	0.086
705.28	0.083
705.73	0.085
706.17	0.082
706.61	0.084
707.06	0.080
707.50	0.081
707.94	0.080
708.38	0.077
708.83	0.077
709.27	0.077
709.71	0.077
710.15	0.073
710.60	0.076
711.04	0.072
711.48	0.075
711.92	0.075
712.37	0.070
712.81	0.072
713.25	0.074
713.69	0.071
714.13	0.072
714.58	0.071
715.02	0.070
715.46	0.070
715.90	0.071
716.35	0.069
716.79	0.071
717.23	0.069
717.67	0.070
718.11	0.068
718.56	0.066
719.00	0.068
719.44	0.068
719.88	0.070
720.32	0.069
720.76	0.067
721.21	0.070
721.65	0.066
722.09	0.068
722.53	0.068
722.97	0.068
723.41	0.067
723.86	0.067
724.30	0.068
724.74	0.069
725.18	0.067
725.62	0.065
726.06	0.070
726.50	0.068
726.95	0.068
727.39	0.067
727.83	0.067
728.27	0.069
728.71	0.070
729.15	0.069
729.59	0.066
730.03	0.068
730.48	0.067
730.92	0.069
731.36	0.067
731.80	0.067
732.24	0.071
732.68	0.068
733.12	0.070
733.56	0.070
734.00	0.072
734.44	0.068
734.89	0.070
735.33	0.067
735.77	0.072
736.21	0.069
736.65	0.069
737.09	0.073
737.53	0.072
737.97	0.071
738.41	0.071
738.85	0.069
739.29	0.069
739.73	0.073
740.17	0.067
740.61	0.069
741.05	0.071
741.49	0.071
741.93	0.071
742.37	0.073
742.81	0.069
743.26	0.071
743.70	0.070
744.14	0.071
744.58	0.071
745.02	0.070
745.46	0.068
745.90	0.066
746.34	0.070
746.78	0.070
747.22	0.069
747.66	0.067
748.10	0.068
748.54	0.068
748.98	0.068
749.42	0.071
749.86	0.072
750.29	0.069
750.73	0.071
751.17	0.067
751.61	0.072
752.05	0.070
752.49	0.070
752.93	0.068
753.37	0.073
753.81	0.067
754.25	0.070
754.69	0.070
755.13	0.070
755.57	0.068
756.01	0.068
756.45	0.067
756.89	0.069
757.33	0.068
757.77	0.066
758.21	0.068
758.64	0.065
759.08	0.069
759.52	0.067
759.96	0.070
760.40	0.067
760.84	0.065
761.28	0.067
761.72	0.070
762.16	0.068
762.60	0.066
763.03	0.070
763.47	0.067
763.91	0.066
764.35	0.065
764.79	0.065
765.23	0.068
765.67	0.065
766.11	0.069
766.54	0.066
766.98	0.064
767.42	0.066
767.86	0.068
768.30	0.064
768.74	0.065
769.17	0.070
769.61	0.066
770.05	0.066
770.49	0.070
770.93	0.065
771.37	0.067
771.80	0.064
772.24	0.064
772.68	0.067
773.12	0.067
773.56	0.069
774.00	0.067
774.43	0.065
774.87	0.063
775.31	0.066
775.75	0.065
776.19	0.066
776.62	0.066
777.06	0.066
777.50	0.066
777.94	0.062
778.37	0.067
778.81	0.066
779.25	0.064
779.69	0.067
780.13	0.064
780.56	0.061
781.00	0.063
781.44	0.065
781.88	0.066
782.31	0.062
782.75	0.061
783.19	0.064
783.63	0.065
784.06	0.065
784.50	0.063
784.94	0.065
785.37	0.062
785.81	0.066
786.25	0.064
786.69	0.063
787.12	0.065
787.56	0.065
788.00	0.067
788.43	0.065
788.87	0.063
789.31	0.066
789.75	0.063
790.18	0.064
790.62	0.065
791.06	0.064
791.49	0.064
791.93	0.061
792.37	0.066
792.80	0.067
793.24	0.061
793.68	0.064
794.11	0.066
794.55	0.065
794.99	0.066
795.42	0.067
795.86	0.066
796.30	0.064
796.73	0.062
797.17	0.065
797.61	0.063
798.04	0.067
798.48	0.064
798.91	0.066
799.35	0.062
799.79	0.063
800.22	0.067
800.66	0.064
801.10	0.067
801.53	0.068
801.97	0.065
802.40	0.063
802.84	0.061
803.28	0.064
803.71	0.065
804.15	0.068
804.58	0.065
805.02	0.066
805.46	0.063
805.89	0.061
806.33	0.066
806.76	0.062
807.20	0.066
807.63	0.064
808.07	0.065
808.51	0.065
808.94	0.065
809.38	0.062
809.81	0.067
810.25	0.062
810.68	0.063
811.12	0.061
811.55	0.064
811.99	0.062
812.42	0.062
812.86	0.064
813.29	0.067
813.73	0.065
814.17	0.059
814.60	0.063
815.04	0.061
815.47	0.060
815.91	0.061
816.34	0.063
816.78	0.066
817.21	0.062
817.65	0.058
818.08	0.060
818.52	0.061
818.95	0.062
819.39	0.066
819.82	0.063
820.25	0.063
820.69	0.065
821.12	0.069
821.56	0.063
821.99	0.066
822.43	0.064
822.86	0.068
823.30	0.064
823.73	0.061
824.17	0.068
824.60	0.065
825.04	0.061
825.47	0.064
825.90	0.062
826.34	0.064
826.77	0.066
827.21	0.065
827.64	0.068
828.08	0.068
828.51	0.067
828.94	0.066
829.38	0.066
829.81	0.066
830.25	0.070
830.68	0.067
831.11	0.068
831.55	0.067
831.98	0.071
832.42	0.071
832.85	0.074
833.28	0.071
833.72	0.071
834.15	0.070
834.58	0.071
835.02	0.073
835.45	0.070
835.88	0.069
836.32	0.076
836.75	0.071
837.19	0.070
837.62	0.066
838.05	0.070
838.49	0.069
838.92	0.071
839.35	0.070
839.79	0.069
840.22	0.071
840.65	0.075
841.09	0.071
841.52	0.072
841.95	0.072
842.39	0.070
842.82	0.071
843.25	0.071
843.68	0.072
844.12	0.074
844.55	0.071
844.98	0.074
845.42	0.070
845.85	0.072
846.28	0.075
846.71	0.068
847.15	0.073
847.58	0.073
848.01	0.071
848.45	0.070
848.88	0.069
849.31	0.069
849.74	0.074
850.18	0.069
850.61	0.078
851.04	0.071
851.47	0.069
851.91	0.070
852.34	0.072
852.77	0.071
853.20	0.075
853.64	0.074
854.07	0.074
854.50	0.072
854.93	0.066
855.36	0.072
855.80	0.072
856.23	0.075
856.66	0.071
857.09	0.079
857.52	0.073
857.96	0.074
858.39	0.073
858.82	0.068
859.25	0.077
859.68	0.073
860.12	0.074
860.55	0.075
860.98	0.077
861.41	0.078
861.84	0.077
862.27	0.078
862.71	0.082
863.14	0.074
863.57	0.078
864.00	0.074
864.43	0.070
864.86	0.080
865.30	0.079
865.73	0.080
866.16	0.077
866.59	0.082
867.02	0.077
867.45	0.075
867.88	0.078
868.31	0.075
868.75	0.073
869.18	0.072
869.61	0.080
870.04	0.079
870.47	0.074
870.90	0.081
871.33	0.083
871.76	0.074
872.19	0.069
872.62	0.078
873.06	0.077
873.49	0.072
873.92	0.081
874.35	0.079
874.78	0.087
875.21	0.076
875.64	0.081
876.07	0.088
876.50	0.074
876.93	0.081
877.36	0.083
877.79	0.080
878.22	0.074
878.65	0.081
879.08	0.086
879.51	0.079
879.94	0.082
880.37	0.078
880.80	0.077
881.23	0.078
881.67	0.075
882.10	0.086
882.53	0.082
882.96	0.084
883.39	0.084
883.82	0.084
884.25	0.083
884.68	0.080
885.11	0.084
885.54	0.086
885.97	0.078
886.39	0.081
886.82	0.082
887.25	0.088
887.68	0.085
888.11	0.081
888.54	0.080
888.97	0.081
889.40	0.089
889.83	0.082
890.26	0.082
890.69	0.084
891.12	0.083
891.55	0.080
891.98	0.080
892.41	0.085
892.84	0.084
893.27	0.081
893.70	0.084
894.13	0.082
894.56	0.085
894.98	0.085
895.41	0.083
895.84	0.092
896.27	0.083
896.70	0.083
897.13	0.081
897.56	0.084
897.99	0.086
898.42	0.088
898.85	0.089
899.27	0.088
899.70	0.094
900.13	0.091
900.56	0.088
900.99	0.087
901.42	0.086
901.85	0.089
902.28	0.094
902.70	0.088
903.13	0.089
903.56	0.096
903.99	0.083
904.42	0.087
904.85	0.089
905.27	0.088
905.70	0.090
906.13	0.086
906.56	0.088
906.99	0.090
907.42	0.085
907.84	0.089
908.27	0.089
908.70	0.084
909.13	0.085
909.56	0.085
909.98	0.090
910.41	0.087
910.84	0.087
911.27	0.086
911.70	0.088
912.12	0.087
912.55	0.088
912.98	0.083
913.41	0.085
913.84	0.087
914.26	0.084
914.69	0.085
915.12	0.090
915.55	0.080
915.97	0.086
916.40	0.088
916.83	0.087
917.26	0.089
917.68	0.089
918.11	0.091
918.54	0.091
918.97	0.089
919.39	0.091
919.82	0.092
920.25	0.087
920.67	0.090
921.10	0.091
921.53	0.088
921.96	0.091
922.38	0.092
922.81	0.094
923.24	0.094
923.66	0.093
924.09	0.093
924.52	0.094
924.94	0.095
925.37	0.097
925.80	0.098
926.22	0.095
926.65	0.102
927.08	0.097
927.50	0.099
927.93	0.103
928.36	0.102
928.78	0.101
929.21	0.101
929.64	0.101
930.06	0.103
930.49	0.106
930.92	0.100
931.34	0.105
931.77	0.109
932.20	0.103
932.62	0.104
933.05	0.100
933.47	0.107
933.90	0.110
934.33	0.112
934.75	0.111
935.18	0.116
935.61	0.109
936.03	0.113
936.46	0.118
936.88	0.116
937.31	0.119
937.73	0.124
938.16	0.119
938.59	0.125
939.01	0.130
939.44	0.131
939.86	0.125
940.29	0.126
940.71	0.133
941.14	0.131
941.57	0.128
941.99	0.140
942.42	0.140
942.84	0.142
943.27	0.145
943.69	0.148
944.12	0.144
944.54	0.157
944.97	0.146
945.39	0.153
945.82	0.153
946.24	0.148
946.67	0.163
947.09	0.162
947.52	0.158
947.94	0.163
948.37	0.168
948.79	0.164
949.22	0.170
949.64	0.170
950.07	0.172
950.49	0.183
950.92	0.174
951.34	0.187
951.77	0.191
952.19	0.185
952.62	0.187
953.04	0.192
953.47	0.193
953.89	0.204
954.32	0.191
954.74	0.203
955.17	0.209
955.59	0.208
956.01	0.212
956.44	0.216
956.86	0.208
957.29	0.219
957.71	0.222
958.14	0.224
958.56	0.225
958.98	0.234
959.41	0.233
959.83	0.233
960.26	0.236
960.68	0.240
961.10	0.244
961.53	0.235
961.95	0.240
962.38	0.247
962.80	0.240
963.22	0.245
963.65	0.246
964.07	0.246
964.50	0.249
964.92	0.247
965.34	0.252
965.77	0.251
966.19	0.243
966.61	0.246
967.04	0.247
967.46	0.245
967.88	0.250
968.31	0.247
968.73	0.252
969.15	0.250
969.58	0.250
970.00	0.247
970.42	0.256
970.85	0.249
971.27	0.251
971.69	0.252
972.12	0.251
972.54	0.251
972.96	0.256
973.39	0.254
973.81	0.260
974.23	0.258
974.65	0.256
975.08	0.262
975.50	0.254
975.92	0.261
976.35	0.253
976.77	0.256
977.19	0.256
977.61	0.254
978.04	0.255
978.46	0.252
978.88	0.257
979.30	0.257
979.73	0.259
980.15	0.252
980.57	0.258
980.99	0.259
981.42	0.250
981.84	0.261
982.26	0.262
982.68	0.254
983.11	0.256
983.53	0.259
983.95	0.248
984.37	0.260
984.79	0.253
985.22	0.255
985.64	0.262
986.06	0.248
986.48	0.252
986.90	0.246
987.33	0.250
987.75	0.248
988.17	0.249
988.59	0.253
989.01	0.246
989.43	0.248
989.86	0.251
990.28	0.239
990.70	0.247
991.12	0.241
991.54	0.246
991.96	0.245
992.39	0.235
992.81	0.241
993.23	0.238
993.65	0.242
994.07	0.241
994.49	0.241
994.91	0.242
995.34	0.237
995.76	0.238
996.18	0.240
996.60	0.232
997.02	0.234
997.44	0.241
997.86	0.232
998.28	0.232
998.70	0.238
999.12	0.229
999.55	0.227
999.97	0.228
1000.39	0.225
1000.81	0.232
1001.23	0.220
1001.65	0.232
1002.07	0.226
1002.49	0.228
1002.91	0.226
1003.33	0.223
1003.75	0.222
1004.17	0.219
1004.59	0.234
1005.01	0.226
1005.43	0.217
1005.85	0.221
1006.28	0.212
1006.70	0.220
1007.12	0.216
1007.54	0.211
1007.96	0.218
1008.38	0.217
1008.80	0.222
1009.22	0.215
1009.64	0.210
1010.06	0.209
1010.48	0.214
1010.90	0.210
1011.32	0.213
1011.74	0.206
1012.16	0.201
1012.58	0.216
1013.00	0.199
1013.42	0.204
1013.84	0.204
1014.26	0.199
1014.67	0.211
1015.09	0.192
1015.51	0.197
1015.93	0.203
1016.35	0.183
1016.77	0.195
1017.19	0.195
1017.61	0.182
1018.03	0.194
1018.45	0.194
1018.87	0.191
1019.29	0.187
1019.71	0.181
1020.13	0.193
1020.55	0.201
1020.97	0.177
1021.38	0.187
1021.80	0.193
1022.22	0.186
1022.64	0.181
1023.06	0.195
1023.48	0.173
1023.90	0.181
1024.32	0.179
1024.74	0.168
1025.15	0.186
1025.57	0.178
1025.99	0.170
1026.41	0.186
1026.83	0.168
1027.25	0.174
1027.67	0.180
1028.08	0.169
1028.50	0.172
1028.92	0.174
1029.34	0.171
1029.76	0.185
1030.18	0.171
1030.60	0.172
1031.01	0.186
1031.43	0.159
1031.85	0.175
1032.27	0.180
1032.69	0.151
1033.10	0.169
1033.52	0.168
1033.94	0.160
1034.36	0.167
1034.78	0.168
1035.19	0.147
1035.61	0.159
1036.03	0.150
1036.45	0.157
1036.87	0.165
1037.28	0.145
1037.70	0.154
1038.12	0.154
1038.54	0.155
1038.95	0.160
1039.37	0.152
1039.79	0.142
1040.21	0.157
1040.62	0.118
1041.04	0.165
1041.46	0.174
1041.88	0.156
1042.29	0.155
1042.71	0.160
1043.13	0.130
1043.55	0.154
1043.96	0.151
1044.38	0.156
1044.80	0.174
1045.21	0.145
1045.63	0.137
1046.05	0.153
1046.47	0.130
1046.88	0.146
1047.30	0.131
1047.72	0.151
1048.13	0.126
1048.55	0.138
1048.97	0.138
1049.38	0.148
1049.80	0.125
1050.22	0.148
1050.63	0.167
1051.05	0.118
1051.47	0.164
1051.88	0.142
1052.30	0.158
1052.72	0.136
1053.13	0.145
1053.55	0.133
1053.97	0.155
1054.38	0.146
1054.80	0.151
1055.21	0.177
1055.63	0.125
1056.05	0.140
1056.46	0.175
1056.88	0.131
1057.29	0.144
1057.71	0.171
1058.13	0.165
1058.54	0.132
1058.96	0.145
1059.37	0.176
1059.79	0.146
1060.21	0.152
1060.62	0.130
1061.04	0.192
1061.45	0.161
1061.87	0.172
1062.28	0.178
1062.70	0.188
1063.12	0.184
1063.53	0.130
1063.95	0.181
1064.36	0.185
1064.78	0.161
1065.19	0.126
1065.61	0.220
1066.02	0.112
1066.44	0.218
1066.85	0.248
1067.27	0.158
1067.68	0.118
1068.10	0.184
1068.51	0.218
1068.93	0.190
1069.35	0.168
1069.76	0.153
1070.17	0.304
1070.59	0.120
1071.00	0.165
1071.42	0.316
1071.83	0.239
1072.25	0.211
1072.66	0.378
1073.08	0.272
1073.49	0.226
1073.91	0.252
1074.32	0.333
1074.74	0.394
1075.15	0.268
1075.57	0.254
1075.98	0.450
1076.40	0.317
1076.81	0.227
1077.22	0.409
1077.64	0.436
1078.05	0.441
1078.47	0.119
1078.88	0.171
1079.30	0.225
1079.71	0.286
1080.12	0.384
1080.54	0.586
1080.95	0.439
1081.37	0.575
1081.78	-0.000
1082.19	0.488
1082.61	0.452
1083.02	0.796
1083.44	0.626
1083.85	0.647
1084.26	0.388
1084.68	-0.000
1085.09	-0.000
1085.50	0.249
1085.92	0.551
1086.33	-0.000
1086.74	0.456
1087.16	0.615
1087.57	-0.000
1087.98	-0.000
1088.40	0.607
1088.81	-0.000
1089.22	0.598
1089.64	0.699
1090.05	-0.000
1090.46	0.541
1090.88	-0.000
1091.29	0.646
1091.70	-0.000
1092.12	0.738
1092.53	-0.000
1092.94	0.699
1093.36	-0.000
1093.77	-0.000
1094.18	1.380
1094.59	-0.000
1095.01	0.560
1095.42	-0.000
1095.83	-0.000
1096.25	0.558
1096.66	-0.000
1097.07	0.811
1097.48	0.954
1097.90	-0.000
1098.31	-0.000
1098.72	-0.000
1099.13	0.463
>>>>>End Processed Spectral Data<<<<<
