SpectraSuite Data File
++++++++++++++++++++++++++++++++++++
Date: Wed May 04 17:06:30 CEST 2016
User: spectrasuite
Dark Spectrum Present: Yes
Reference Spectrum Present: Yes
Number of Sampled Component Spectra: 1
Spectrometers: HR+C0708
Integration Time (usec): 1000 (HR+C0708)
Spectra Averaged: 10 (HR+C0708)
Boxcar Smoothing: 0 (HR+C0708)
Correct for Electrical Dark: No (HR+C0708)
Strobe/Lamp Enabled: No (HR+C0708)
Correct for Detector Non-linearity: No (HR+C0708)
Correct for Stray Light: No (HR+C0708)
Number of Pixels in Processed Spectrum: 2048
>>>>>Begin Processed Spectral Data<<<<<
188.76	-0.000
189.23	-0.000
189.70	-0.000
190.17	-0.000
190.64	-0.000
191.12	-0.000
191.59	-0.000
192.06	-0.000
192.53	-0.000
193.01	-0.000
193.48	-0.000
193.95	-0.000
194.42	-0.000
194.90	-0.000
195.37	-0.000
195.84	-0.000
196.31	-0.000
196.78	-0.000
197.26	-0.000
197.73	-0.000
198.20	-0.000
198.67	-0.000
199.14	-0.000
199.62	-0.000
200.09	-0.000
200.56	-0.000
201.03	-0.000
201.50	-0.000
201.97	-0.000
202.45	-0.000
202.92	-0.000
203.39	-0.000
203.86	-0.000
204.33	-0.000
204.80	-0.000
205.28	-0.000
205.75	-0.000
206.22	-0.000
206.69	-0.000
207.16	-0.000
207.63	-0.000
208.11	-0.000
208.58	-0.000
209.05	-0.000
209.52	-0.000
209.99	-0.000
210.46	-0.000
210.93	-0.000
211.41	-0.000
211.88	-0.000
212.35	-0.000
212.82	-0.000
213.29	-0.000
213.76	-0.000
214.23	-0.000
214.70	-0.000
215.18	-0.000
215.65	-0.000
216.12	-0.000
216.59	-0.000
217.06	1.299
217.53	-0.000
218.00	-0.000
218.47	-0.000
218.94	-0.000
219.41	-0.000
219.89	-0.000
220.36	-0.000
220.83	-0.000
221.30	-0.000
221.77	-0.000
222.24	-0.000
222.71	-0.000
223.18	-0.000
223.65	1.307
224.12	2.025
224.59	-0.000
225.06	-0.000
225.54	1.795
226.01	-0.000
226.48	-0.000
226.95	-0.000
227.42	-0.000
227.89	-0.000
228.36	-0.000
228.83	2.449
229.30	-0.000
229.77	-0.000
230.24	2.052
230.71	2.671
231.18	2.294
231.65	-0.000
232.12	-0.000
232.59	-0.000
233.06	-0.000
233.53	-0.000
234.00	2.222
234.47	3.319
234.94	-0.000
235.41	3.536
235.88	-0.000
236.35	-0.000
236.82	-0.000
237.29	-0.000
237.76	-0.000
238.23	-0.000
238.70	-0.000
239.17	-0.000
239.64	-0.000
240.11	-0.000
240.58	-0.000
241.05	-0.000
241.52	-0.000
241.99	2.817
242.46	2.858
242.93	2.763
243.40	-0.000
243.87	-0.000
244.34	2.882
244.81	-0.000
245.28	-0.000
245.75	3.492
246.22	-0.000
246.69	-0.000
247.16	-0.000
247.63	3.634
248.10	-0.000
248.57	-0.000
249.04	-0.000
249.51	2.736
249.98	-0.000
250.45	-0.000
250.92	4.703
251.39	2.566
251.85	2.691
252.32	2.289
252.79	2.155
253.26	1.964
253.73	1.841
254.20	1.710
254.67	1.595
255.14	1.534
255.61	1.481
256.08	1.402
256.55	1.337
257.02	1.294
257.49	1.230
257.95	1.187
258.42	1.147
258.89	1.115
259.36	1.085
259.83	1.049
260.30	1.028
260.77	0.993
261.24	0.972
261.71	0.953
262.17	0.936
262.64	0.915
263.11	0.896
263.58	0.879
264.05	0.864
264.52	0.850
264.99	0.836
265.46	0.819
265.92	0.805
266.39	0.796
266.86	0.780
267.33	0.771
267.80	0.759
268.27	0.749
268.74	0.744
269.20	0.729
269.67	0.719
270.14	0.712
270.61	0.705
271.08	0.695
271.55	0.684
272.01	0.680
272.48	0.672
272.95	0.665
273.42	0.654
273.89	0.653
274.36	0.646
274.82	0.637
275.29	0.632
275.76	0.630
276.23	0.625
276.70	0.616
277.16	0.618
277.63	0.613
278.10	0.605
278.57	0.606
279.04	0.599
279.50	0.595
279.97	0.589
280.44	0.588
280.91	0.586
281.38	0.579
281.84	0.578
282.31	0.580
282.78	0.575
283.25	0.569
283.72	0.569
284.18	0.570
284.65	0.573
285.12	0.567
285.59	0.567
286.05	0.563
286.52	0.565
286.99	0.563
287.46	0.562
287.92	0.561
288.39	0.561
288.86	0.559
289.33	0.560
289.79	0.561
290.26	0.554
290.73	0.557
291.20	0.550
291.66	0.550
292.13	0.543
292.60	0.542
293.07	0.536
293.53	0.534
294.00	0.529
294.47	0.522
294.93	0.521
295.40	0.512
295.87	0.509
296.34	0.497
296.80	0.496
297.27	0.485
297.74	0.481
298.20	0.473
298.67	0.462
299.14	0.458
299.60	0.450
300.07	0.444
300.54	0.437
301.01	0.433
301.47	0.424
301.94	0.418
302.41	0.408
302.87	0.399
303.34	0.397
303.81	0.388
304.27	0.385
304.74	0.377
305.21	0.367
305.67	0.365
306.14	0.359
306.61	0.353
307.07	0.349
307.54	0.346
308.01	0.339
308.47	0.332
308.94	0.327
309.40	0.326
309.87	0.324
310.34	0.323
310.80	0.316
311.27	0.311
311.74	0.313
312.20	0.307
312.67	0.306
313.13	0.299
313.60	0.298
314.07	0.294
314.53	0.293
315.00	0.290
315.47	0.289
315.93	0.289
316.40	0.283
316.86	0.282
317.33	0.280
317.80	0.279
318.26	0.278
318.73	0.277
319.19	0.276
319.66	0.273
320.13	0.272
320.59	0.272
321.06	0.271
321.52	0.268
321.99	0.269
322.45	0.265
322.92	0.265
323.39	0.262
323.85	0.265
324.32	0.262
324.78	0.257
325.25	0.253
325.71	0.257
326.18	0.254
326.64	0.251
327.11	0.249
327.58	0.246
328.04	0.250
328.51	0.245
328.97	0.246
329.44	0.242
329.90	0.240
330.37	0.238
330.83	0.237
331.30	0.236
331.76	0.232
332.23	0.232
332.69	0.230
333.16	0.232
333.62	0.226
334.09	0.223
334.56	0.225
335.02	0.221
335.49	0.218
335.95	0.216
336.42	0.216
336.88	0.213
337.35	0.210
337.81	0.212
338.28	0.211
338.74	0.211
339.20	0.209
339.67	0.208
340.13	0.208
340.60	0.206
341.06	0.203
341.53	0.200
341.99	0.199
342.46	0.198
342.92	0.196
343.39	0.194
343.85	0.190
344.32	0.192
344.78	0.188
345.25	0.196
345.71	0.193
346.17	0.195
346.64	0.197
347.10	0.191
347.57	0.189
348.03	0.185
348.50	0.184
348.96	0.184
349.43	0.186
349.89	0.185
350.35	0.185
350.82	0.183
351.28	0.187
351.75	0.185
352.21	0.188
352.67	0.180
353.14	0.180
353.60	0.177
354.07	0.178
354.53	0.176
355.00	0.176
355.46	0.173
355.92	0.170
356.39	0.173
356.85	0.169
357.31	0.167
357.78	0.166
358.24	0.166
358.71	0.168
359.17	0.166
359.63	0.162
360.10	0.162
360.56	0.164
361.03	0.165
361.49	0.163
361.95	0.163
362.42	0.165
362.88	0.165
363.34	0.165
363.81	0.161
364.27	0.163
364.73	0.163
365.20	0.162
365.66	0.161
366.12	0.161
366.59	0.161
367.05	0.163
367.51	0.159
367.98	0.161
368.44	0.159
368.90	0.157
369.37	0.159
369.83	0.158
370.29	0.156
370.76	0.157
371.22	0.155
371.68	0.155
372.15	0.154
372.61	0.152
373.07	0.153
373.54	0.152
374.00	0.151
374.46	0.154
374.92	0.153
375.39	0.153
375.85	0.151
376.31	0.151
376.78	0.151
377.24	0.151
377.70	0.151
378.16	0.151
378.63	0.150
379.09	0.150
379.55	0.148
380.01	0.151
380.48	0.150
380.94	0.150
381.40	0.148
381.87	0.152
382.33	0.150
382.79	0.147
383.25	0.147
383.72	0.150
384.18	0.148
384.64	0.149
385.10	0.145
385.56	0.149
386.03	0.149
386.49	0.148
386.95	0.147
387.41	0.147
387.88	0.141
388.34	0.142
388.80	0.146
389.26	0.148
389.72	0.145
390.19	0.141
390.65	0.142
391.11	0.144
391.57	0.144
392.04	0.142
392.50	0.140
392.96	0.144
393.42	0.143
393.88	0.143
394.34	0.142
394.81	0.142
395.27	0.143
395.73	0.140
396.19	0.140
396.65	0.139
397.12	0.137
397.58	0.138
398.04	0.138
398.50	0.139
398.96	0.141
399.42	0.143
399.89	0.143
400.35	0.140
400.81	0.138
401.27	0.140
401.73	0.139
402.19	0.139
402.65	0.133
403.12	0.137
403.58	0.137
404.04	0.137
404.50	0.133
404.96	0.135
405.42	0.136
405.88	0.134
406.34	0.138
406.81	0.138
407.27	0.135
407.73	0.133
408.19	0.134
408.65	0.132
409.11	0.132
409.57	0.132
410.03	0.133
410.49	0.133
410.96	0.130
411.42	0.131
411.88	0.129
412.34	0.126
412.80	0.130
413.26	0.130
413.72	0.131
414.18	0.129
414.64	0.128
415.10	0.129
415.56	0.131
416.02	0.130
416.48	0.130
416.95	0.132
417.41	0.127
417.87	0.127
418.33	0.126
418.79	0.127
419.25	0.127
419.71	0.125
420.17	0.124
420.63	0.122
421.09	0.124
421.55	0.125
422.01	0.128
422.47	0.130
422.93	0.131
423.39	0.128
423.85	0.124
424.31	0.126
424.77	0.127
425.23	0.126
425.69	0.131
426.15	0.130
426.61	0.126
427.07	0.121
427.53	0.124
427.99	0.125
428.45	0.125
428.91	0.123
429.37	0.119
429.83	0.121
430.29	0.126
430.75	0.126
431.21	0.127
431.67	0.132
432.13	0.127
432.59	0.124
433.05	0.124
433.51	0.119
433.97	0.117
434.43	0.130
434.89	0.130
435.35	0.124
435.81	0.126
436.27	0.125
436.73	0.123
437.19	0.126
437.65	0.123
438.11	0.125
438.57	0.123
439.03	0.122
439.48	0.126
439.94	0.123
440.40	0.125
440.86	0.118
441.32	0.122
441.78	0.120
442.24	0.125
442.70	0.126
443.16	0.121
443.62	0.125
444.08	0.119
444.54	0.121
444.99	0.121
445.45	0.120
445.91	0.121
446.37	0.120
446.83	0.121
447.29	0.121
447.75	0.122
448.21	0.122
448.67	0.119
449.12	0.120
449.58	0.119
450.04	0.121
450.50	0.121
450.96	0.120
451.42	0.121
451.88	0.122
452.34	0.118
452.79	0.120
453.25	0.122
453.71	0.122
454.17	0.118
454.63	0.123
455.09	0.121
455.55	0.118
456.00	0.117
456.46	0.119
456.92	0.118
457.38	0.118
457.84	0.118
458.30	0.120
458.75	0.118
459.21	0.115
459.67	0.117
460.13	0.119
460.59	0.120
461.04	0.117
461.50	0.117
461.96	0.116
462.42	0.117
462.88	0.115
463.33	0.115
463.79	0.117
464.25	0.116
464.71	0.119
465.17	0.118
465.62	0.118
466.08	0.117
466.54	0.120
467.00	0.118
467.46	0.119
467.91	0.119
468.37	0.119
468.83	0.120
469.29	0.118
469.74	0.117
470.20	0.119
470.66	0.117
471.12	0.117
471.57	0.118
472.03	0.118
472.49	0.120
472.95	0.120
473.40	0.117
473.86	0.117
474.32	0.116
474.78	0.118
475.23	0.120
475.69	0.117
476.15	0.119
476.60	0.119
477.06	0.117
477.52	0.119
477.98	0.118
478.43	0.120
478.89	0.116
479.35	0.121
479.80	0.118
480.26	0.115
480.72	0.117
481.18	0.117
481.63	0.116
482.09	0.118
482.55	0.114
483.00	0.114
483.46	0.116
483.92	0.116
484.37	0.114
484.83	0.114
485.29	0.116
485.74	0.115
486.20	0.116
486.66	0.119
487.11	0.115
487.57	0.117
488.03	0.114
488.48	0.116
488.94	0.113
489.40	0.115
489.85	0.117
490.31	0.116
490.77	0.115
491.22	0.118
491.68	0.115
492.13	0.117
492.59	0.119
493.05	0.115
493.50	0.117
493.96	0.115
494.42	0.117
494.87	0.117
495.33	0.113
495.78	0.115
496.24	0.116
496.70	0.116
497.15	0.115
497.61	0.115
498.06	0.113
498.52	0.113
498.98	0.114
499.43	0.115
499.89	0.115
500.34	0.114
500.80	0.113
501.25	0.113
501.71	0.112
502.17	0.112
502.62	0.115
503.08	0.111
503.53	0.114
503.99	0.113
504.44	0.113
504.90	0.112
505.36	0.113
505.81	0.113
506.27	0.111
506.72	0.111
507.18	0.113
507.63	0.112
508.09	0.113
508.54	0.110
509.00	0.115
509.45	0.113
509.91	0.113
510.36	0.114
510.82	0.114
511.27	0.113
511.73	0.116
512.19	0.113
512.64	0.111
513.10	0.112
513.55	0.112
514.01	0.113
514.46	0.115
514.92	0.112
515.37	0.116
515.83	0.112
516.28	0.114
516.73	0.114
517.19	0.113
517.64	0.112
518.10	0.112
518.55	0.111
519.01	0.114
519.46	0.111
519.92	0.110
520.37	0.109
520.83	0.109
521.28	0.109
521.74	0.111
522.19	0.111
522.65	0.111
523.10	0.110
523.55	0.112
524.01	0.110
524.46	0.110
524.92	0.112
525.37	0.113
525.83	0.114
526.28	0.112
526.73	0.112
527.19	0.111
527.64	0.111
528.10	0.112
528.55	0.112
529.01	0.113
529.46	0.114
529.91	0.111
530.37	0.111
530.82	0.112
531.28	0.110
531.73	0.112
532.18	0.113
532.64	0.111
533.09	0.112
533.54	0.113
534.00	0.113
534.45	0.112
534.91	0.111
535.36	0.110
535.81	0.110
536.27	0.112
536.72	0.111
537.17	0.112
537.63	0.112
538.08	0.115
538.54	0.114
538.99	0.114
539.44	0.113
539.90	0.114
540.35	0.112
540.80	0.111
541.26	0.113
541.71	0.116
542.16	0.114
542.62	0.118
543.07	0.114
543.52	0.115
543.98	0.116
544.43	0.114
544.88	0.114
545.34	0.117
545.79	0.115
546.24	0.115
546.69	0.114
547.15	0.118
547.60	0.116
548.05	0.116
548.51	0.119
548.96	0.118
549.41	0.118
549.86	0.119
550.32	0.119
550.77	0.119
551.22	0.118
551.68	0.120
552.13	0.120
552.58	0.119
553.03	0.122
553.49	0.120
553.94	0.120
554.39	0.121
554.84	0.123
555.30	0.121
555.75	0.122
556.20	0.124
556.65	0.123
557.11	0.124
557.56	0.123
558.01	0.124
558.46	0.123
558.92	0.126
559.37	0.126
559.82	0.127
560.27	0.128
560.72	0.127
561.18	0.127
561.63	0.128
562.08	0.128
562.53	0.128
562.99	0.130
563.44	0.129
563.89	0.131
564.34	0.131
564.79	0.133
565.25	0.132
565.70	0.134
566.15	0.132
566.60	0.133
567.05	0.134
567.50	0.136
567.96	0.135
568.41	0.136
568.86	0.134
569.31	0.135
569.76	0.137
570.21	0.138
570.67	0.136
571.12	0.140
571.57	0.138
572.02	0.141
572.47	0.140
572.92	0.142
573.37	0.144
573.83	0.142
574.28	0.143
574.73	0.142
575.18	0.145
575.63	0.143
576.08	0.146
576.53	0.144
576.98	0.146
577.44	0.149
577.89	0.147
578.34	0.150
578.79	0.151
579.24	0.153
579.69	0.151
580.14	0.152
580.59	0.152
581.04	0.155
581.49	0.155
581.95	0.156
582.40	0.159
582.85	0.160
583.30	0.160
583.75	0.163
584.20	0.162
584.65	0.163
585.10	0.167
585.55	0.167
586.00	0.167
586.45	0.169
586.90	0.169
587.35	0.170
587.80	0.173
588.25	0.175
588.71	0.175
589.16	0.179
589.61	0.177
590.06	0.180
590.51	0.180
590.96	0.181
591.41	0.184
591.86	0.185
592.31	0.186
592.76	0.188
593.21	0.189
593.66	0.191
594.11	0.192
594.56	0.193
595.01	0.198
595.46	0.197
595.91	0.198
596.36	0.200
596.81	0.203
597.26	0.201
597.71	0.205
598.16	0.205
598.61	0.211
599.06	0.210
599.51	0.211
599.96	0.213
600.41	0.214
600.86	0.215
601.31	0.217
601.76	0.221
602.21	0.221
602.65	0.222
603.10	0.223
603.55	0.225
604.00	0.227
604.45	0.229
604.90	0.230
605.35	0.233
605.80	0.232
606.25	0.233
606.70	0.237
607.15	0.236
607.60	0.238
608.05	0.237
608.50	0.240
608.95	0.243
609.39	0.242
609.84	0.244
610.29	0.245
610.74	0.244
611.19	0.246
611.64	0.250
612.09	0.248
612.54	0.250
612.99	0.250
613.44	0.250
613.88	0.250
614.33	0.250
614.78	0.253
615.23	0.254
615.68	0.252
616.13	0.254
616.58	0.256
617.03	0.257
617.47	0.257
617.92	0.255
618.37	0.258
618.82	0.256
619.27	0.258
619.72	0.260
620.17	0.260
620.61	0.260
621.06	0.259
621.51	0.262
621.96	0.262
622.41	0.262
622.86	0.262
623.30	0.264
623.75	0.265
624.20	0.265
624.65	0.265
625.10	0.267
625.54	0.265
625.99	0.265
626.44	0.267
626.89	0.269
627.34	0.269
627.78	0.269
628.23	0.273
628.68	0.272
629.13	0.273
629.58	0.274
630.02	0.277
630.47	0.278
630.92	0.278
631.37	0.282
631.81	0.281
632.26	0.282
632.71	0.286
633.16	0.287
633.61	0.287
634.05	0.290
634.50	0.288
634.95	0.294
635.40	0.294
635.84	0.297
636.29	0.299
636.74	0.299
637.18	0.300
637.63	0.304
638.08	0.307
638.53	0.307
638.97	0.309
639.42	0.313
639.87	0.314
640.32	0.317
640.76	0.317
641.21	0.322
641.66	0.324
642.10	0.325
642.55	0.329
643.00	0.329
643.44	0.334
643.89	0.336
644.34	0.341
644.79	0.343
645.23	0.343
645.68	0.346
646.13	0.351
646.57	0.354
647.02	0.355
647.47	0.358
647.91	0.359
648.36	0.363
648.81	0.368
649.25	0.367
649.70	0.369
650.15	0.372
650.59	0.375
651.04	0.378
651.48	0.379
651.93	0.384
652.38	0.384
652.82	0.386
653.27	0.384
653.72	0.392
654.16	0.392
654.61	0.393
655.06	0.396
655.50	0.394
655.95	0.392
656.39	0.395
656.84	0.406
657.29	0.413
657.73	0.405
658.18	0.407
658.62	0.408
659.07	0.414
659.52	0.412
659.96	0.413
660.41	0.415
660.85	0.416
661.30	0.417
661.74	0.418
662.19	0.419
662.64	0.416
663.08	0.415
663.53	0.419
663.97	0.419
664.42	0.417
664.86	0.418
665.31	0.417
665.75	0.417
666.20	0.414
666.65	0.417
667.09	0.414
667.54	0.412
667.98	0.410
668.43	0.408
668.87	0.405
669.32	0.403
669.76	0.403
670.21	0.402
670.65	0.398
671.10	0.392
671.54	0.392
671.99	0.389
672.43	0.382
672.88	0.378
673.32	0.372
673.77	0.368
674.21	0.364
674.66	0.356
675.10	0.357
675.55	0.349
675.99	0.344
676.44	0.337
676.88	0.332
677.33	0.327
677.77	0.320
678.22	0.312
678.66	0.305
679.11	0.299
679.55	0.293
679.99	0.286
680.44	0.279
680.88	0.274
681.33	0.269
681.77	0.260
682.22	0.252
682.66	0.248
683.11	0.239
683.55	0.236
683.99	0.232
684.44	0.226
684.88	0.219
685.33	0.213
685.77	0.207
686.21	0.201
686.66	0.197
687.10	0.191
687.55	0.185
687.99	0.182
688.44	0.177
688.88	0.169
689.32	0.169
689.77	0.162
690.21	0.160
690.65	0.156
691.10	0.152
691.54	0.149
691.99	0.145
692.43	0.141
692.87	0.139
693.32	0.135
693.76	0.132
694.20	0.131
694.65	0.128
695.09	0.124
695.53	0.122
695.98	0.122
696.42	0.119
696.86	0.119
697.31	0.115
697.75	0.112
698.19	0.112
698.64	0.109
699.08	0.109
699.52	0.106
699.97	0.106
700.41	0.104
700.85	0.103
701.30	0.099
701.74	0.100
702.18	0.097
702.63	0.096
703.07	0.094
703.51	0.098
703.96	0.094
704.40	0.094
704.84	0.093
705.28	0.091
705.73	0.091
706.17	0.090
706.61	0.090
707.06	0.089
707.50	0.089
707.94	0.089
708.38	0.086
708.83	0.086
709.27	0.087
709.71	0.085
710.15	0.084
710.60	0.088
711.04	0.082
711.48	0.084
711.92	0.084
712.37	0.082
712.81	0.081
713.25	0.086
713.69	0.084
714.13	0.082
714.58	0.082
715.02	0.082
715.46	0.081
715.90	0.080
716.35	0.081
716.79	0.082
717.23	0.082
717.67	0.083
718.11	0.079
718.56	0.079
719.00	0.082
719.44	0.080
719.88	0.083
720.32	0.083
720.76	0.079
721.21	0.085
721.65	0.080
722.09	0.079
722.53	0.082
722.97	0.081
723.41	0.081
723.86	0.080
724.30	0.080
724.74	0.082
725.18	0.081
725.62	0.079
726.06	0.080
726.50	0.083
726.95	0.081
727.39	0.084
727.83	0.082
728.27	0.083
728.71	0.082
729.15	0.083
729.59	0.081
730.03	0.081
730.48	0.081
730.92	0.083
731.36	0.082
731.80	0.082
732.24	0.084
732.68	0.083
733.12	0.082
733.56	0.082
734.00	0.082
734.44	0.083
734.89	0.084
735.33	0.081
735.77	0.085
736.21	0.084
736.65	0.083
737.09	0.086
737.53	0.084
737.97	0.085
738.41	0.083
738.85	0.084
739.29	0.083
739.73	0.083
740.17	0.083
740.61	0.082
741.05	0.085
741.49	0.084
741.93	0.083
742.37	0.084
742.81	0.084
743.26	0.084
743.70	0.084
744.14	0.086
744.58	0.083
745.02	0.084
745.46	0.083
745.90	0.083
746.34	0.084
746.78	0.086
747.22	0.085
747.66	0.082
748.10	0.081
748.54	0.085
748.98	0.083
749.42	0.084
749.86	0.083
750.29	0.083
750.73	0.084
751.17	0.085
751.61	0.084
752.05	0.084
752.49	0.083
752.93	0.084
753.37	0.086
753.81	0.085
754.25	0.084
754.69	0.084
755.13	0.084
755.57	0.084
756.01	0.081
756.45	0.083
756.89	0.083
757.33	0.082
757.77	0.084
758.21	0.084
758.64	0.081
759.08	0.083
759.52	0.081
759.96	0.083
760.40	0.082
760.84	0.082
761.28	0.081
761.72	0.082
762.16	0.081
762.60	0.084
763.03	0.083
763.47	0.083
763.91	0.080
764.35	0.079
764.79	0.080
765.23	0.085
765.67	0.082
766.11	0.082
766.54	0.081
766.98	0.080
767.42	0.084
767.86	0.083
768.30	0.080
768.74	0.082
769.17	0.083
769.61	0.084
770.05	0.082
770.49	0.084
770.93	0.082
771.37	0.084
771.80	0.080
772.24	0.081
772.68	0.080
773.12	0.080
773.56	0.082
774.00	0.083
774.43	0.081
774.87	0.080
775.31	0.084
775.75	0.080
776.19	0.080
776.62	0.084
777.06	0.079
777.50	0.081
777.94	0.080
778.37	0.082
778.81	0.084
779.25	0.078
779.69	0.080
780.13	0.080
780.56	0.078
781.00	0.082
781.44	0.081
781.88	0.080
782.31	0.080
782.75	0.079
783.19	0.081
783.63	0.080
784.06	0.082
784.50	0.080
784.94	0.083
785.37	0.078
785.81	0.082
786.25	0.081
786.69	0.082
787.12	0.083
787.56	0.083
788.00	0.080
788.43	0.082
788.87	0.081
789.31	0.083
789.75	0.081
790.18	0.083
790.62	0.081
791.06	0.081
791.49	0.079
791.93	0.080
792.37	0.078
792.80	0.081
793.24	0.078
793.68	0.082
794.11	0.084
794.55	0.081
794.99	0.077
795.42	0.082
795.86	0.085
796.30	0.082
796.73	0.079
797.17	0.081
797.61	0.082
798.04	0.085
798.48	0.081
798.91	0.083
799.35	0.083
799.79	0.081
800.22	0.084
800.66	0.079
801.10	0.086
801.53	0.086
801.97	0.084
802.40	0.078
802.84	0.083
803.28	0.082
803.71	0.081
804.15	0.083
804.58	0.084
805.02	0.083
805.46	0.083
805.89	0.080
806.33	0.085
806.76	0.079
807.20	0.084
807.63	0.080
808.07	0.082
808.51	0.080
808.94	0.085
809.38	0.080
809.81	0.085
810.25	0.083
810.68	0.081
811.12	0.083
811.55	0.083
811.99	0.082
812.42	0.083
812.86	0.083
813.29	0.081
813.73	0.086
814.17	0.078
814.60	0.081
815.04	0.078
815.47	0.078
815.91	0.079
816.34	0.085
816.78	0.083
817.21	0.084
817.65	0.083
818.08	0.080
818.52	0.084
818.95	0.084
819.39	0.085
819.82	0.084
820.25	0.082
820.69	0.084
821.12	0.088
821.56	0.082
821.99	0.084
822.43	0.082
822.86	0.085
823.30	0.083
823.73	0.081
824.17	0.083
824.60	0.084
825.04	0.085
825.47	0.082
825.90	0.081
826.34	0.084
826.77	0.082
827.21	0.086
827.64	0.083
828.08	0.091
828.51	0.085
828.94	0.084
829.38	0.085
829.81	0.088
830.25	0.093
830.68	0.087
831.11	0.088
831.55	0.085
831.98	0.090
832.42	0.091
832.85	0.093
833.28	0.092
833.72	0.092
834.15	0.093
834.58	0.089
835.02	0.087
835.45	0.090
835.88	0.093
836.32	0.091
836.75	0.093
837.19	0.090
837.62	0.089
838.05	0.093
838.49	0.088
838.92	0.093
839.35	0.092
839.79	0.087
840.22	0.088
840.65	0.091
841.09	0.091
841.52	0.096
841.95	0.091
842.39	0.089
842.82	0.095
843.25	0.091
843.68	0.092
844.12	0.094
844.55	0.092
844.98	0.096
845.42	0.091
845.85	0.096
846.28	0.095
846.71	0.090
847.15	0.091
847.58	0.096
848.01	0.090
848.45	0.088
848.88	0.089
849.31	0.090
849.74	0.092
850.18	0.086
850.61	0.098
851.04	0.096
851.47	0.090
851.91	0.094
852.34	0.094
852.77	0.094
853.20	0.097
853.64	0.097
854.07	0.092
854.50	0.092
854.93	0.091
855.36	0.091
855.80	0.096
856.23	0.100
856.66	0.094
857.09	0.101
857.52	0.095
857.96	0.096
858.39	0.099
858.82	0.089
859.25	0.097
859.68	0.092
860.12	0.096
860.55	0.099
860.98	0.098
861.41	0.099
861.84	0.097
862.27	0.097
862.71	0.099
863.14	0.098
863.57	0.096
864.00	0.096
864.43	0.096
864.86	0.099
865.30	0.095
865.73	0.098
866.16	0.095
866.59	0.099
867.02	0.094
867.45	0.095
867.88	0.102
868.31	0.102
868.75	0.099
869.18	0.098
869.61	0.104
870.04	0.101
870.47	0.097
870.90	0.101
871.33	0.104
871.76	0.096
872.19	0.097
872.62	0.103
873.06	0.106
873.49	0.098
873.92	0.105
874.35	0.104
874.78	0.107
875.21	0.097
875.64	0.100
876.07	0.106
876.50	0.098
876.93	0.097
877.36	0.101
877.79	0.106
878.22	0.094
878.65	0.101
879.08	0.103
879.51	0.100
879.94	0.103
880.37	0.100
880.80	0.102
881.23	0.104
881.67	0.096
882.10	0.099
882.53	0.100
882.96	0.103
883.39	0.108
883.82	0.103
884.25	0.104
884.68	0.102
885.11	0.104
885.54	0.109
885.97	0.102
886.39	0.100
886.82	0.099
887.25	0.109
887.68	0.105
888.11	0.099
888.54	0.109
888.97	0.100
889.40	0.103
889.83	0.105
890.26	0.107
890.69	0.103
891.12	0.104
891.55	0.110
891.98	0.107
892.41	0.102
892.84	0.110
893.27	0.102
893.70	0.103
894.13	0.105
894.56	0.104
894.98	0.103
895.41	0.104
895.84	0.111
896.27	0.106
896.70	0.106
897.13	0.105
897.56	0.107
897.99	0.100
898.42	0.107
898.85	0.112
899.27	0.108
899.70	0.109
900.13	0.108
900.56	0.113
900.99	0.105
901.42	0.104
901.85	0.109
902.28	0.111
902.70	0.105
903.13	0.109
903.56	0.117
903.99	0.109
904.42	0.108
904.85	0.109
905.27	0.111
905.70	0.111
906.13	0.108
906.56	0.107
906.99	0.108
907.42	0.106
907.84	0.107
908.27	0.109
908.70	0.107
909.13	0.105
909.56	0.105
909.98	0.109
910.41	0.106
910.84	0.107
911.27	0.102
911.70	0.108
912.12	0.108
912.55	0.107
912.98	0.104
913.41	0.106
913.84	0.103
914.26	0.104
914.69	0.105
915.12	0.106
915.55	0.104
915.97	0.105
916.40	0.106
916.83	0.107
917.26	0.107
917.68	0.108
918.11	0.107
918.54	0.108
918.97	0.106
919.39	0.107
919.82	0.109
920.25	0.111
920.67	0.106
921.10	0.105
921.53	0.107
921.96	0.107
922.38	0.110
922.81	0.111
923.24	0.113
923.66	0.110
924.09	0.110
924.52	0.114
924.94	0.113
925.37	0.114
925.80	0.115
926.22	0.117
926.65	0.118
927.08	0.116
927.50	0.113
927.93	0.118
928.36	0.118
928.78	0.121
929.21	0.121
929.64	0.124
930.06	0.123
930.49	0.123
930.92	0.124
931.34	0.125
931.77	0.127
932.20	0.126
932.62	0.127
933.05	0.122
933.47	0.127
933.90	0.125
934.33	0.134
934.75	0.129
935.18	0.135
935.61	0.133
936.03	0.132
936.46	0.138
936.88	0.143
937.31	0.141
937.73	0.150
938.16	0.145
938.59	0.147
939.01	0.154
939.44	0.153
939.86	0.156
940.29	0.158
940.71	0.163
941.14	0.160
941.57	0.160
941.99	0.165
942.42	0.169
942.84	0.165
943.27	0.168
943.69	0.177
944.12	0.177
944.54	0.179
944.97	0.178
945.39	0.179
945.82	0.184
946.24	0.179
946.67	0.182
947.09	0.186
947.52	0.185
947.94	0.183
948.37	0.192
948.79	0.190
949.22	0.198
949.64	0.200
950.07	0.205
950.49	0.199
950.92	0.199
951.34	0.209
951.77	0.208
952.19	0.209
952.62	0.211
953.04	0.214
953.47	0.220
953.89	0.229
954.32	0.226
954.74	0.232
955.17	0.225
955.59	0.233
956.01	0.241
956.44	0.242
956.86	0.237
957.29	0.245
957.71	0.255
958.14	0.250
958.56	0.256
958.98	0.258
959.41	0.255
959.83	0.262
960.26	0.262
960.68	0.264
961.10	0.262
961.53	0.261
961.95	0.267
962.38	0.271
962.80	0.265
963.22	0.271
963.65	0.270
964.07	0.272
964.50	0.269
964.92	0.278
965.34	0.275
965.77	0.269
966.19	0.271
966.61	0.275
967.04	0.281
967.46	0.274
967.88	0.275
968.31	0.276
968.73	0.277
969.15	0.280
969.58	0.276
970.00	0.273
970.42	0.282
970.85	0.275
971.27	0.282
971.69	0.279
972.12	0.270
972.54	0.276
972.96	0.285
973.39	0.286
973.81	0.281
974.23	0.288
974.65	0.285
975.08	0.283
975.50	0.281
975.92	0.280
976.35	0.284
976.77	0.280
977.19	0.284
977.61	0.282
978.04	0.285
978.46	0.278
978.88	0.279
979.30	0.279
979.73	0.284
980.15	0.279
980.57	0.276
980.99	0.281
981.42	0.278
981.84	0.284
982.26	0.280
982.68	0.277
983.11	0.276
983.53	0.281
983.95	0.280
984.37	0.284
984.79	0.279
985.22	0.280
985.64	0.282
986.06	0.270
986.48	0.279
986.90	0.272
987.33	0.271
987.75	0.273
988.17	0.276
988.59	0.277
989.01	0.267
989.43	0.273
989.86	0.270
990.28	0.262
990.70	0.264
991.12	0.271
991.54	0.272
991.96	0.272
992.39	0.262
992.81	0.270
993.23	0.272
993.65	0.262
994.07	0.263
994.49	0.263
994.91	0.261
995.34	0.266
995.76	0.264
996.18	0.267
996.60	0.251
997.02	0.262
997.44	0.264
997.86	0.258
998.28	0.253
998.70	0.262
999.12	0.256
999.55	0.265
999.97	0.259
1000.39	0.255
1000.81	0.261
1001.23	0.252
1001.65	0.249
1002.07	0.250
1002.49	0.250
1002.91	0.251
1003.33	0.246
1003.75	0.247
1004.17	0.244
1004.59	0.254
1005.01	0.247
1005.43	0.249
1005.85	0.249
1006.28	0.243
1006.70	0.247
1007.12	0.249
1007.54	0.239
1007.96	0.243
1008.38	0.238
1008.80	0.245
1009.22	0.237
1009.64	0.243
1010.06	0.233
1010.48	0.244
1010.90	0.247
1011.32	0.249
1011.74	0.242
1012.16	0.233
1012.58	0.239
1013.00	0.230
1013.42	0.225
1013.84	0.234
1014.26	0.224
1014.67	0.232
1015.09	0.227
1015.51	0.237
1015.93	0.232
1016.35	0.211
1016.77	0.221
1017.19	0.222
1017.61	0.211
1018.03	0.221
1018.45	0.216
1018.87	0.218
1019.29	0.210
1019.71	0.212
1020.13	0.223
1020.55	0.230
1020.97	0.205
1021.38	0.230
1021.80	0.222
1022.22	0.218
1022.64	0.206
1023.06	0.221
1023.48	0.217
1023.90	0.206
1024.32	0.201
1024.74	0.197
1025.15	0.216
1025.57	0.206
1025.99	0.210
1026.41	0.222
1026.83	0.212
1027.25	0.208
1027.67	0.222
1028.08	0.210
1028.50	0.215
1028.92	0.209
1029.34	0.211
1029.76	0.210
1030.18	0.214
1030.60	0.213
1031.01	0.205
1031.43	0.198
1031.85	0.213
1032.27	0.222
1032.69	0.198
1033.10	0.205
1033.52	0.202
1033.94	0.206
1034.36	0.197
1034.78	0.204
1035.19	0.193
1035.61	0.200
1036.03	0.195
1036.45	0.193
1036.87	0.205
1037.28	0.195
1037.70	0.195
1038.12	0.204
1038.54	0.203
1038.95	0.198
1039.37	0.180
1039.79	0.195
1040.21	0.194
1040.62	0.172
1041.04	0.205
1041.46	0.218
1041.88	0.202
1042.29	0.193
1042.71	0.203
1043.13	0.176
1043.55	0.185
1043.96	0.183
1044.38	0.209
1044.80	0.206
1045.21	0.187
1045.63	0.188
1046.05	0.210
1046.47	0.193
1046.88	0.207
1047.30	0.192
1047.72	0.222
1048.13	0.188
1048.55	0.218
1048.97	0.196
1049.38	0.206
1049.80	0.173
1050.22	0.209
1050.63	0.199
1051.05	0.174
1051.47	0.202
1051.88	0.195
1052.30	0.211
1052.72	0.219
1053.13	0.218
1053.55	0.223
1053.97	0.209
1054.38	0.223
1054.80	0.221
1055.21	0.221
1055.63	0.185
1056.05	0.220
1056.46	0.254
1056.88	0.226
1057.29	0.185
1057.71	0.288
1058.13	0.252
1058.54	0.221
1058.96	0.237
1059.37	0.295
1059.79	0.261
1060.21	0.245
1060.62	0.216
1061.04	0.314
1061.45	0.247
1061.87	0.321
1062.28	0.294
1062.70	0.307
1063.12	0.300
1063.53	0.283
1063.95	0.372
1064.36	0.358
1064.78	0.319
1065.19	0.444
1065.61	0.333
1066.02	0.290
1066.44	0.365
1066.85	0.456
1067.27	0.407
1067.68	0.330
1068.10	0.418
1068.51	0.431
1068.93	0.466
1069.35	0.429
1069.76	0.522
1070.17	0.435
1070.59	0.369
1071.00	0.606
1071.42	0.644
1071.83	0.548
1072.25	0.564
1072.66	1.090
1073.08	0.775
1073.49	0.746
1073.91	0.600
1074.32	1.276
1074.74	1.226
1075.15	0.685
1075.57	1.310
1075.98	1.040
1076.40	1.886
1076.81	-0.000
1077.22	-0.000
1077.64	-0.000
1078.05	-0.000
1078.47	-0.000
1078.88	-0.000
1079.30	1.530
1079.71	1.365
1080.12	-0.000
1080.54	-0.000
1080.95	-0.000
1081.37	-0.000
1081.78	-0.000
1082.19	-0.000
1082.61	-0.000
1083.02	-0.000
1083.44	-0.000
1083.85	-0.000
1084.26	-0.000
1084.68	-0.000
1085.09	-0.000
1085.50	-0.000
1085.92	-0.000
1086.33	-0.000
1086.74	-0.000
1087.16	-0.000
1087.57	-0.000
1087.98	-0.000
1088.40	-0.000
1088.81	-0.000
1089.22	-0.000
1089.64	-0.000
1090.05	-0.000
1090.46	-0.000
1090.88	-0.000
1091.29	-0.000
1091.70	-0.000
1092.12	-0.000
1092.53	-0.000
1092.94	-0.000
1093.36	-0.000
1093.77	-0.000
1094.18	-0.000
1094.59	-0.000
1095.01	-0.000
1095.42	-0.000
1095.83	-0.000
1096.25	-0.000
1096.66	-0.000
1097.07	-0.000
1097.48	-0.000
1097.90	-0.000
1098.31	-0.000
1098.72	-0.000
1099.13	-0.000
>>>>>End Processed Spectral Data<<<<<
