SpectraSuite Data File
++++++++++++++++++++++++++++++++++++
Date: Wed May 04 14:19:12 CEST 2016
User: spectrasuite
Dark Spectrum Present: Yes
Reference Spectrum Present: Yes
Number of Sampled Component Spectra: 1
Spectrometers: HR+C0708
Integration Time (usec): 1000 (HR+C0708)
Spectra Averaged: 10 (HR+C0708)
Boxcar Smoothing: 0 (HR+C0708)
Correct for Electrical Dark: No (HR+C0708)
Strobe/Lamp Enabled: No (HR+C0708)
Correct for Detector Non-linearity: No (HR+C0708)
Correct for Stray Light: No (HR+C0708)
Number of Pixels in Processed Spectrum: 2048
>>>>>Begin Processed Spectral Data<<<<<
188.76	-0.000
189.23	-0.000
189.70	0.706
190.17	-0.000
190.64	-0.000
191.12	-0.000
191.59	-0.000
192.06	-0.000
192.53	-0.000
193.01	-0.000
193.48	-0.000
193.95	-0.000
194.42	0.641
194.90	-0.000
195.37	-0.000
195.84	-0.000
196.31	0.674
196.78	-0.000
197.26	-0.000
197.73	-0.000
198.20	-0.000
198.67	-0.000
199.14	-0.000
199.62	-0.000
200.09	-0.000
200.56	0.803
201.03	-0.000
201.50	0.572
201.97	0.651
202.45	0.707
202.92	1.415
203.39	1.061
203.86	-0.000
204.33	1.465
204.80	0.610
205.28	0.919
205.75	0.526
206.22	0.743
206.69	0.659
207.16	0.591
207.63	0.888
208.11	0.645
208.58	0.760
209.05	0.698
209.52	0.782
209.99	0.522
210.46	0.621
210.93	1.103
211.41	0.594
211.88	0.778
212.35	0.506
212.82	-0.000
213.29	0.594
213.76	0.900
214.23	0.709
214.70	0.622
215.18	0.534
215.65	0.406
216.12	0.846
216.59	0.609
217.06	0.652
217.53	0.852
218.00	0.927
218.47	0.530
218.94	1.009
219.41	0.784
219.89	0.774
220.36	0.748
220.83	0.641
221.30	1.484
221.77	0.677
222.24	0.763
222.71	1.089
223.18	1.344
223.65	0.731
224.12	0.795
224.59	1.025
225.06	0.918
225.54	0.903
226.01	0.977
226.48	1.137
226.95	1.087
227.42	1.038
227.89	1.958
228.36	1.466
228.83	1.151
229.30	1.158
229.77	1.561
230.24	1.166
230.71	1.340
231.18	1.318
231.65	1.856
232.12	1.496
232.59	1.837
233.06	2.415
233.53	2.335
234.00	1.672
234.47	1.775
234.94	1.927
235.41	2.078
235.88	1.940
236.35	2.109
236.82	2.006
237.29	1.996
237.76	2.223
238.23	2.435
238.70	2.106
239.17	2.217
239.64	2.496
240.11	2.619
240.58	2.085
241.05	2.239
241.52	2.664
241.99	2.242
242.46	2.266
242.93	2.101
243.40	3.143
243.87	2.387
244.34	2.284
244.81	2.321
245.28	2.480
245.75	2.477
246.22	2.350
246.69	2.929
247.16	2.367
247.63	2.450
248.10	2.308
248.57	3.085
249.04	2.439
249.51	2.347
249.98	3.201
250.45	2.476
250.92	2.393
251.39	2.230
251.85	2.337
252.32	2.126
252.79	2.039
253.26	1.922
253.73	1.843
254.20	1.713
254.67	1.617
255.14	1.584
255.61	1.507
256.08	1.447
256.55	1.384
257.02	1.344
257.49	1.283
257.95	1.243
258.42	1.198
258.89	1.170
259.36	1.143
259.83	1.114
260.30	1.093
260.77	1.059
261.24	1.040
261.71	1.022
262.17	0.998
262.64	0.982
263.11	0.959
263.58	0.952
264.05	0.933
264.52	0.913
264.99	0.900
265.46	0.890
265.92	0.881
266.39	0.865
266.86	0.859
267.33	0.845
267.80	0.835
268.27	0.827
268.74	0.815
269.20	0.804
269.67	0.800
270.14	0.787
270.61	0.782
271.08	0.774
271.55	0.762
272.01	0.758
272.48	0.752
272.95	0.744
273.42	0.732
273.89	0.733
274.36	0.725
274.82	0.724
275.29	0.718
275.76	0.712
276.23	0.707
276.70	0.700
277.16	0.702
277.63	0.694
278.10	0.691
278.57	0.686
279.04	0.691
279.50	0.687
279.97	0.683
280.44	0.682
280.91	0.679
281.38	0.673
281.84	0.677
282.31	0.673
282.78	0.669
283.25	0.672
283.72	0.670
284.18	0.670
284.65	0.673
285.12	0.668
285.59	0.673
286.05	0.670
286.52	0.667
286.99	0.673
287.46	0.669
287.92	0.668
288.39	0.666
288.86	0.672
289.33	0.672
289.79	0.670
290.26	0.667
290.73	0.670
291.20	0.665
291.66	0.662
292.13	0.659
292.60	0.655
293.07	0.650
293.53	0.648
294.00	0.645
294.47	0.637
294.93	0.633
295.40	0.626
295.87	0.625
296.34	0.613
296.80	0.606
297.27	0.598
297.74	0.586
298.20	0.581
298.67	0.574
299.14	0.567
299.60	0.557
300.07	0.544
300.54	0.540
301.01	0.531
301.47	0.525
301.94	0.513
302.41	0.505
302.87	0.499
303.34	0.490
303.81	0.483
304.27	0.476
304.74	0.467
305.21	0.459
305.67	0.457
306.14	0.448
306.61	0.444
307.07	0.433
307.54	0.434
308.01	0.425
308.47	0.415
308.94	0.410
309.40	0.410
309.87	0.407
310.34	0.401
310.80	0.397
311.27	0.394
311.74	0.389
312.20	0.387
312.67	0.382
313.13	0.380
313.60	0.377
314.07	0.376
314.53	0.370
315.00	0.368
315.47	0.366
315.93	0.370
316.40	0.362
316.86	0.361
317.33	0.358
317.80	0.357
318.26	0.356
318.73	0.355
319.19	0.351
319.66	0.349
320.13	0.348
320.59	0.349
321.06	0.348
321.52	0.345
321.99	0.344
322.45	0.343
322.92	0.337
323.39	0.339
323.85	0.336
324.32	0.337
324.78	0.335
325.25	0.330
325.71	0.329
326.18	0.332
326.64	0.326
327.11	0.320
327.58	0.326
328.04	0.325
328.51	0.322
328.97	0.320
329.44	0.319
329.90	0.317
330.37	0.312
330.83	0.316
331.30	0.312
331.76	0.311
332.23	0.307
332.69	0.305
333.16	0.302
333.62	0.300
334.09	0.298
334.56	0.295
335.02	0.294
335.49	0.290
335.95	0.287
336.42	0.287
336.88	0.284
337.35	0.281
337.81	0.278
338.28	0.281
338.74	0.281
339.20	0.278
339.67	0.282
340.13	0.281
340.60	0.277
341.06	0.276
341.53	0.271
341.99	0.270
342.46	0.267
342.92	0.265
343.39	0.265
343.85	0.260
344.32	0.261
344.78	0.261
345.25	0.262
345.71	0.264
346.17	0.262
346.64	0.265
347.10	0.261
347.57	0.257
348.03	0.255
348.50	0.252
348.96	0.252
349.43	0.253
349.89	0.255
350.35	0.252
350.82	0.246
351.28	0.249
351.75	0.250
352.21	0.247
352.67	0.243
353.14	0.244
353.60	0.242
354.07	0.238
354.53	0.239
355.00	0.237
355.46	0.235
355.92	0.233
356.39	0.233
356.85	0.225
357.31	0.224
357.78	0.227
358.24	0.225
358.71	0.219
359.17	0.220
359.63	0.214
360.10	0.214
360.56	0.212
361.03	0.212
361.49	0.210
361.95	0.207
362.42	0.206
362.88	0.205
363.34	0.200
363.81	0.200
364.27	0.199
364.73	0.198
365.20	0.193
365.66	0.191
366.12	0.191
366.59	0.191
367.05	0.187
367.51	0.187
367.98	0.187
368.44	0.186
368.90	0.185
369.37	0.183
369.83	0.185
370.29	0.181
370.76	0.182
371.22	0.179
371.68	0.184
372.15	0.179
372.61	0.176
373.07	0.178
373.54	0.177
374.00	0.175
374.46	0.180
374.92	0.178
375.39	0.178
375.85	0.177
376.31	0.175
376.78	0.177
377.24	0.173
377.70	0.174
378.16	0.174
378.63	0.174
379.09	0.176
379.55	0.173
380.01	0.175
380.48	0.173
380.94	0.174
381.40	0.170
381.87	0.176
382.33	0.169
382.79	0.170
383.25	0.172
383.72	0.174
384.18	0.171
384.64	0.172
385.10	0.170
385.56	0.170
386.03	0.171
386.49	0.168
386.95	0.167
387.41	0.170
387.88	0.168
388.34	0.167
388.80	0.167
389.26	0.166
389.72	0.167
390.19	0.162
390.65	0.165
391.11	0.166
391.57	0.167
392.04	0.165
392.50	0.165
392.96	0.163
393.42	0.165
393.88	0.166
394.34	0.162
394.81	0.163
395.27	0.164
395.73	0.159
396.19	0.163
396.65	0.163
397.12	0.160
397.58	0.159
398.04	0.162
398.50	0.161
398.96	0.163
399.42	0.161
399.89	0.162
400.35	0.161
400.81	0.160
401.27	0.161
401.73	0.157
402.19	0.160
402.65	0.154
403.12	0.157
403.58	0.157
404.04	0.153
404.50	0.153
404.96	0.154
405.42	0.156
405.88	0.158
406.34	0.156
406.81	0.158
407.27	0.153
407.73	0.151
408.19	0.154
408.65	0.149
409.11	0.151
409.57	0.151
410.03	0.154
410.49	0.152
410.96	0.149
411.42	0.150
411.88	0.149
412.34	0.145
412.80	0.150
413.26	0.152
413.72	0.146
414.18	0.148
414.64	0.148
415.10	0.146
415.56	0.148
416.02	0.147
416.48	0.146
416.95	0.146
417.41	0.148
417.87	0.145
418.33	0.147
418.79	0.145
419.25	0.144
419.71	0.146
420.17	0.142
420.63	0.142
421.09	0.142
421.55	0.144
422.01	0.146
422.47	0.149
422.93	0.146
423.39	0.144
423.85	0.143
424.31	0.143
424.77	0.142
425.23	0.141
425.69	0.145
426.15	0.145
426.61	0.143
427.07	0.140
427.53	0.142
427.99	0.141
428.45	0.145
428.91	0.141
429.37	0.140
429.83	0.142
430.29	0.142
430.75	0.142
431.21	0.143
431.67	0.144
432.13	0.143
432.59	0.141
433.05	0.142
433.51	0.141
433.97	0.140
434.43	0.144
434.89	0.145
435.35	0.141
435.81	0.141
436.27	0.140
436.73	0.139
437.19	0.141
437.65	0.137
438.11	0.141
438.57	0.138
439.03	0.140
439.48	0.139
439.94	0.139
440.40	0.140
440.86	0.138
441.32	0.137
441.78	0.138
442.24	0.139
442.70	0.138
443.16	0.138
443.62	0.139
444.08	0.137
444.54	0.138
444.99	0.141
445.45	0.136
445.91	0.137
446.37	0.139
446.83	0.136
447.29	0.137
447.75	0.135
448.21	0.141
448.67	0.137
449.12	0.137
449.58	0.136
450.04	0.136
450.50	0.138
450.96	0.137
451.42	0.139
451.88	0.137
452.34	0.136
452.79	0.133
453.25	0.137
453.71	0.136
454.17	0.133
454.63	0.138
455.09	0.135
455.55	0.136
456.00	0.133
456.46	0.133
456.92	0.136
457.38	0.134
457.84	0.135
458.30	0.135
458.75	0.136
459.21	0.134
459.67	0.134
460.13	0.136
460.59	0.136
461.04	0.135
461.50	0.134
461.96	0.134
462.42	0.134
462.88	0.133
463.33	0.133
463.79	0.133
464.25	0.132
464.71	0.136
465.17	0.134
465.62	0.133
466.08	0.135
466.54	0.137
467.00	0.133
467.46	0.135
467.91	0.136
468.37	0.133
468.83	0.134
469.29	0.135
469.74	0.135
470.20	0.134
470.66	0.135
471.12	0.133
471.57	0.134
472.03	0.133
472.49	0.133
472.95	0.136
473.40	0.135
473.86	0.136
474.32	0.134
474.78	0.134
475.23	0.135
475.69	0.131
476.15	0.137
476.60	0.135
477.06	0.135
477.52	0.132
477.98	0.134
478.43	0.136
478.89	0.134
479.35	0.136
479.80	0.136
480.26	0.132
480.72	0.132
481.18	0.135
481.63	0.135
482.09	0.133
482.55	0.131
483.00	0.131
483.46	0.133
483.92	0.133
484.37	0.133
484.83	0.131
485.29	0.134
485.74	0.130
486.20	0.132
486.66	0.134
487.11	0.131
487.57	0.131
488.03	0.133
488.48	0.135
488.94	0.133
489.40	0.133
489.85	0.134
490.31	0.131
490.77	0.130
491.22	0.133
491.68	0.133
492.13	0.132
492.59	0.136
493.05	0.132
493.50	0.132
493.96	0.131
494.42	0.135
494.87	0.133
495.33	0.130
495.78	0.132
496.24	0.133
496.70	0.134
497.15	0.130
497.61	0.133
498.06	0.131
498.52	0.133
498.98	0.130
499.43	0.130
499.89	0.131
500.34	0.130
500.80	0.132
501.25	0.132
501.71	0.131
502.17	0.129
502.62	0.131
503.08	0.128
503.53	0.129
503.99	0.131
504.44	0.130
504.90	0.130
505.36	0.131
505.81	0.132
506.27	0.130
506.72	0.129
507.18	0.129
507.63	0.128
508.09	0.130
508.54	0.126
509.00	0.130
509.45	0.128
509.91	0.128
510.36	0.128
510.82	0.129
511.27	0.128
511.73	0.128
512.19	0.130
512.64	0.128
513.10	0.131
513.55	0.129
514.01	0.128
514.46	0.128
514.92	0.130
515.37	0.130
515.83	0.128
516.28	0.128
516.73	0.128
517.19	0.128
517.64	0.128
518.10	0.128
518.55	0.129
519.01	0.130
519.46	0.128
519.92	0.127
520.37	0.129
520.83	0.128
521.28	0.125
521.74	0.127
522.19	0.127
522.65	0.126
523.10	0.127
523.55	0.128
524.01	0.127
524.46	0.127
524.92	0.127
525.37	0.128
525.83	0.126
526.28	0.128
526.73	0.126
527.19	0.126
527.64	0.129
528.10	0.127
528.55	0.128
529.01	0.128
529.46	0.127
529.91	0.123
530.37	0.124
530.82	0.127
531.28	0.128
531.73	0.129
532.18	0.130
532.64	0.128
533.09	0.128
533.54	0.128
534.00	0.129
534.45	0.131
534.91	0.127
535.36	0.127
535.81	0.127
536.27	0.126
536.72	0.129
537.17	0.128
537.63	0.127
538.08	0.131
538.54	0.129
538.99	0.131
539.44	0.128
539.90	0.132
540.35	0.127
540.80	0.130
541.26	0.131
541.71	0.132
542.16	0.131
542.62	0.134
543.07	0.134
543.52	0.132
543.98	0.132
544.43	0.132
544.88	0.131
545.34	0.134
545.79	0.135
546.24	0.131
546.69	0.133
547.15	0.135
547.60	0.135
548.05	0.135
548.51	0.135
548.96	0.136
549.41	0.136
549.86	0.137
550.32	0.138
550.77	0.137
551.22	0.137
551.68	0.139
552.13	0.139
552.58	0.140
553.03	0.141
553.49	0.138
553.94	0.139
554.39	0.139
554.84	0.143
555.30	0.141
555.75	0.143
556.20	0.143
556.65	0.144
557.11	0.145
557.56	0.144
558.01	0.145
558.46	0.145
558.92	0.147
559.37	0.149
559.82	0.146
560.27	0.146
560.72	0.147
561.18	0.149
561.63	0.151
562.08	0.150
562.53	0.149
562.99	0.151
563.44	0.151
563.89	0.152
564.34	0.154
564.79	0.154
565.25	0.154
565.70	0.156
566.15	0.156
566.60	0.157
567.05	0.156
567.50	0.158
567.96	0.159
568.41	0.160
568.86	0.159
569.31	0.160
569.76	0.161
570.21	0.164
570.67	0.161
571.12	0.164
571.57	0.163
572.02	0.166
572.47	0.166
572.92	0.167
573.37	0.167
573.83	0.169
574.28	0.168
574.73	0.167
575.18	0.171
575.63	0.170
576.08	0.172
576.53	0.171
576.98	0.173
577.44	0.177
577.89	0.175
578.34	0.180
578.79	0.178
579.24	0.177
579.69	0.180
580.14	0.181
580.59	0.182
581.04	0.183
581.49	0.184
581.95	0.186
582.40	0.188
582.85	0.189
583.30	0.191
583.75	0.192
584.20	0.193
584.65	0.196
585.10	0.197
585.55	0.198
586.00	0.197
586.45	0.201
586.90	0.204
587.35	0.204
587.80	0.205
588.25	0.207
588.71	0.208
589.16	0.211
589.61	0.212
590.06	0.213
590.51	0.217
590.96	0.218
591.41	0.222
591.86	0.223
592.31	0.223
592.76	0.227
593.21	0.226
593.66	0.231
594.11	0.233
594.56	0.234
595.01	0.236
595.46	0.237
595.91	0.240
596.36	0.242
596.81	0.246
597.26	0.245
597.71	0.248
598.16	0.250
598.61	0.255
599.06	0.255
599.51	0.256
599.96	0.258
600.41	0.260
600.86	0.263
601.31	0.265
601.76	0.266
602.21	0.272
602.65	0.273
603.10	0.274
603.55	0.276
604.00	0.279
604.45	0.279
604.90	0.281
605.35	0.284
605.80	0.281
606.25	0.285
606.70	0.290
607.15	0.291
607.60	0.292
608.05	0.291
608.50	0.295
608.95	0.295
609.39	0.298
609.84	0.299
610.29	0.301
610.74	0.301
611.19	0.303
611.64	0.306
612.09	0.305
612.54	0.308
612.99	0.308
613.44	0.307
613.88	0.309
614.33	0.309
614.78	0.312
615.23	0.312
615.68	0.311
616.13	0.313
616.58	0.313
617.03	0.315
617.47	0.318
617.92	0.315
618.37	0.320
618.82	0.319
619.27	0.317
619.72	0.319
620.17	0.320
620.61	0.323
621.06	0.323
621.51	0.319
621.96	0.322
622.41	0.323
622.86	0.322
623.30	0.325
623.75	0.325
624.20	0.327
624.65	0.326
625.10	0.328
625.54	0.325
625.99	0.326
626.44	0.329
626.89	0.329
627.34	0.332
627.78	0.331
628.23	0.334
628.68	0.332
629.13	0.334
629.58	0.335
630.02	0.338
630.47	0.341
630.92	0.343
631.37	0.345
631.81	0.346
632.26	0.348
632.71	0.349
633.16	0.352
633.61	0.354
634.05	0.356
634.50	0.355
634.95	0.360
635.40	0.360
635.84	0.364
636.29	0.366
636.74	0.368
637.18	0.369
637.63	0.370
638.08	0.375
638.53	0.377
638.97	0.382
639.42	0.385
639.87	0.386
640.32	0.388
640.76	0.393
641.21	0.394
641.66	0.397
642.10	0.401
642.55	0.404
643.00	0.407
643.44	0.409
643.89	0.414
644.34	0.418
644.79	0.421
645.23	0.427
645.68	0.428
646.13	0.431
646.57	0.435
647.02	0.439
647.47	0.444
647.91	0.446
648.36	0.448
648.81	0.450
649.25	0.456
649.70	0.457
650.15	0.460
650.59	0.465
651.04	0.470
651.48	0.471
651.93	0.473
652.38	0.479
652.82	0.481
653.27	0.481
653.72	0.489
654.16	0.491
654.61	0.493
655.06	0.493
655.50	0.496
655.95	0.498
656.39	0.499
656.84	0.504
657.29	0.508
657.73	0.510
658.18	0.509
658.62	0.514
659.07	0.517
659.52	0.515
659.96	0.520
660.41	0.522
660.85	0.524
661.30	0.525
661.74	0.528
662.19	0.527
662.64	0.529
663.08	0.531
663.53	0.528
663.97	0.529
664.42	0.530
664.86	0.533
665.31	0.532
665.75	0.532
666.20	0.526
666.65	0.529
667.09	0.530
667.54	0.526
667.98	0.525
668.43	0.523
668.87	0.520
669.32	0.516
669.76	0.515
670.21	0.513
670.65	0.508
671.10	0.502
671.54	0.500
671.99	0.496
672.43	0.488
672.88	0.483
673.32	0.481
673.77	0.472
674.21	0.469
674.66	0.458
675.10	0.453
675.55	0.442
675.99	0.437
676.44	0.431
676.88	0.423
677.33	0.414
677.77	0.404
678.22	0.398
678.66	0.389
679.11	0.380
679.55	0.372
679.99	0.362
680.44	0.355
680.88	0.345
681.33	0.338
681.77	0.329
682.22	0.319
682.66	0.311
683.11	0.303
683.55	0.296
683.99	0.288
684.44	0.282
684.88	0.272
685.33	0.265
685.77	0.256
686.21	0.252
686.66	0.241
687.10	0.235
687.55	0.228
687.99	0.223
688.44	0.219
688.88	0.208
689.32	0.203
689.77	0.198
690.21	0.193
690.65	0.186
691.10	0.184
691.54	0.178
691.99	0.173
692.43	0.169
692.87	0.167
693.32	0.160
693.76	0.157
694.20	0.154
694.65	0.151
695.09	0.145
695.53	0.142
695.98	0.141
696.42	0.138
696.86	0.136
697.31	0.133
697.75	0.128
698.19	0.127
698.64	0.124
699.08	0.123
699.52	0.121
699.97	0.118
700.41	0.116
700.85	0.115
701.30	0.112
701.74	0.111
702.18	0.109
702.63	0.108
703.07	0.104
703.51	0.105
703.96	0.104
704.40	0.103
704.84	0.101
705.28	0.098
705.73	0.102
706.17	0.099
706.61	0.099
707.06	0.095
707.50	0.096
707.94	0.096
708.38	0.095
708.83	0.096
709.27	0.093
709.71	0.093
710.15	0.092
710.60	0.094
711.04	0.090
711.48	0.090
711.92	0.091
712.37	0.087
712.81	0.089
713.25	0.088
713.69	0.087
714.13	0.088
714.58	0.089
715.02	0.085
715.46	0.085
715.90	0.087
716.35	0.086
716.79	0.086
717.23	0.088
717.67	0.086
718.11	0.084
718.56	0.087
719.00	0.086
719.44	0.087
719.88	0.085
720.32	0.086
720.76	0.085
721.21	0.086
721.65	0.085
722.09	0.084
722.53	0.087
722.97	0.083
723.41	0.083
723.86	0.084
724.30	0.086
724.74	0.087
725.18	0.084
725.62	0.084
726.06	0.085
726.50	0.088
726.95	0.086
727.39	0.087
727.83	0.083
728.27	0.085
728.71	0.086
729.15	0.084
729.59	0.085
730.03	0.087
730.48	0.083
730.92	0.088
731.36	0.084
731.80	0.085
732.24	0.086
732.68	0.087
733.12	0.085
733.56	0.084
734.00	0.088
734.44	0.085
734.89	0.085
735.33	0.082
735.77	0.088
736.21	0.085
736.65	0.085
737.09	0.089
737.53	0.089
737.97	0.087
738.41	0.086
738.85	0.089
739.29	0.085
739.73	0.086
740.17	0.086
740.61	0.086
741.05	0.089
741.49	0.087
741.93	0.087
742.37	0.086
742.81	0.088
743.26	0.087
743.70	0.086
744.14	0.087
744.58	0.087
745.02	0.086
745.46	0.086
745.90	0.086
746.34	0.086
746.78	0.089
747.22	0.085
747.66	0.084
748.10	0.087
748.54	0.086
748.98	0.086
749.42	0.087
749.86	0.088
750.29	0.086
750.73	0.089
751.17	0.085
751.61	0.088
752.05	0.085
752.49	0.085
752.93	0.088
753.37	0.086
753.81	0.085
754.25	0.086
754.69	0.087
755.13	0.088
755.57	0.086
756.01	0.085
756.45	0.084
756.89	0.083
757.33	0.084
757.77	0.087
758.21	0.086
758.64	0.083
759.08	0.084
759.52	0.085
759.96	0.087
760.40	0.085
760.84	0.082
761.28	0.082
761.72	0.085
762.16	0.082
762.60	0.084
763.03	0.085
763.47	0.082
763.91	0.083
764.35	0.083
764.79	0.081
765.23	0.081
765.67	0.083
766.11	0.083
766.54	0.084
766.98	0.082
767.42	0.085
767.86	0.086
768.30	0.082
768.74	0.083
769.17	0.086
769.61	0.084
770.05	0.082
770.49	0.087
770.93	0.080
771.37	0.084
771.80	0.082
772.24	0.081
772.68	0.085
773.12	0.079
773.56	0.083
774.00	0.084
774.43	0.084
774.87	0.081
775.31	0.083
775.75	0.082
776.19	0.082
776.62	0.082
777.06	0.083
777.50	0.084
777.94	0.080
778.37	0.085
778.81	0.081
779.25	0.080
779.69	0.083
780.13	0.080
780.56	0.082
781.00	0.081
781.44	0.083
781.88	0.082
782.31	0.078
782.75	0.081
783.19	0.082
783.63	0.081
784.06	0.083
784.50	0.081
784.94	0.083
785.37	0.081
785.81	0.081
786.25	0.079
786.69	0.083
787.12	0.080
787.56	0.082
788.00	0.082
788.43	0.082
788.87	0.082
789.31	0.081
789.75	0.082
790.18	0.082
790.62	0.079
791.06	0.082
791.49	0.082
791.93	0.078
792.37	0.078
792.80	0.083
793.24	0.080
793.68	0.080
794.11	0.083
794.55	0.083
794.99	0.081
795.42	0.082
795.86	0.083
796.30	0.083
796.73	0.078
797.17	0.080
797.61	0.082
798.04	0.080
798.48	0.080
798.91	0.084
799.35	0.081
799.79	0.078
800.22	0.081
800.66	0.080
801.10	0.084
801.53	0.085
801.97	0.082
802.40	0.079
802.84	0.077
803.28	0.078
803.71	0.082
804.15	0.083
804.58	0.085
805.02	0.084
805.46	0.083
805.89	0.082
806.33	0.082
806.76	0.081
807.20	0.082
807.63	0.081
808.07	0.082
808.51	0.081
808.94	0.083
809.38	0.079
809.81	0.083
810.25	0.079
810.68	0.081
811.12	0.079
811.55	0.078
811.99	0.082
812.42	0.080
812.86	0.081
813.29	0.080
813.73	0.082
814.17	0.072
814.60	0.080
815.04	0.077
815.47	0.080
815.91	0.080
816.34	0.082
816.78	0.081
817.21	0.081
817.65	0.082
818.08	0.078
818.52	0.080
818.95	0.082
819.39	0.081
819.82	0.082
820.25	0.080
820.69	0.080
821.12	0.084
821.56	0.082
821.99	0.082
822.43	0.078
822.86	0.081
823.30	0.081
823.73	0.079
824.17	0.081
824.60	0.083
825.04	0.080
825.47	0.084
825.90	0.077
826.34	0.086
826.77	0.080
827.21	0.082
827.64	0.083
828.08	0.086
828.51	0.081
828.94	0.083
829.38	0.086
829.81	0.084
830.25	0.087
830.68	0.085
831.11	0.087
831.55	0.087
831.98	0.089
832.42	0.086
832.85	0.086
833.28	0.088
833.72	0.086
834.15	0.088
834.58	0.082
835.02	0.087
835.45	0.089
835.88	0.090
836.32	0.090
836.75	0.089
837.19	0.091
837.62	0.086
838.05	0.090
838.49	0.084
838.92	0.086
839.35	0.085
839.79	0.091
840.22	0.090
840.65	0.089
841.09	0.091
841.52	0.091
841.95	0.085
842.39	0.088
842.82	0.089
843.25	0.092
843.68	0.090
844.12	0.087
844.55	0.089
844.98	0.092
845.42	0.087
845.85	0.088
846.28	0.088
846.71	0.083
847.15	0.087
847.58	0.094
848.01	0.093
848.45	0.087
848.88	0.086
849.31	0.085
849.74	0.086
850.18	0.084
850.61	0.092
851.04	0.086
851.47	0.088
851.91	0.091
852.34	0.089
852.77	0.091
853.20	0.091
853.64	0.090
854.07	0.087
854.50	0.089
854.93	0.082
855.36	0.082
855.80	0.090
856.23	0.091
856.66	0.090
857.09	0.097
857.52	0.094
857.96	0.095
858.39	0.092
858.82	0.088
859.25	0.091
859.68	0.089
860.12	0.093
860.55	0.087
860.98	0.093
861.41	0.090
861.84	0.093
862.27	0.091
862.71	0.096
863.14	0.089
863.57	0.094
864.00	0.091
864.43	0.087
864.86	0.098
865.30	0.089
865.73	0.090
866.16	0.089
866.59	0.097
867.02	0.090
867.45	0.091
867.88	0.097
868.31	0.096
868.75	0.088
869.18	0.094
869.61	0.092
870.04	0.091
870.47	0.092
870.90	0.097
871.33	0.099
871.76	0.087
872.19	0.087
872.62	0.097
873.06	0.099
873.49	0.092
873.92	0.099
874.35	0.100
874.78	0.102
875.21	0.094
875.64	0.093
876.07	0.097
876.50	0.090
876.93	0.097
877.36	0.097
877.79	0.097
878.22	0.090
878.65	0.094
879.08	0.103
879.51	0.097
879.94	0.098
880.37	0.095
880.80	0.098
881.23	0.100
881.67	0.094
882.10	0.098
882.53	0.097
882.96	0.099
883.39	0.098
883.82	0.103
884.25	0.101
884.68	0.099
885.11	0.101
885.54	0.099
885.97	0.092
886.39	0.093
886.82	0.097
887.25	0.099
887.68	0.104
888.11	0.097
888.54	0.100
888.97	0.097
889.40	0.100
889.83	0.105
890.26	0.100
890.69	0.099
891.12	0.097
891.55	0.103
891.98	0.100
892.41	0.098
892.84	0.105
893.27	0.101
893.70	0.097
894.13	0.096
894.56	0.106
894.98	0.101
895.41	0.101
895.84	0.107
896.27	0.100
896.70	0.102
897.13	0.098
897.56	0.101
897.99	0.099
898.42	0.104
898.85	0.103
899.27	0.104
899.70	0.106
900.13	0.104
900.56	0.106
900.99	0.103
901.42	0.097
901.85	0.102
902.28	0.111
902.70	0.105
903.13	0.102
903.56	0.107
903.99	0.105
904.42	0.104
904.85	0.104
905.27	0.107
905.70	0.108
906.13	0.106
906.56	0.103
906.99	0.104
907.42	0.103
907.84	0.105
908.27	0.108
908.70	0.104
909.13	0.103
909.56	0.105
909.98	0.106
910.41	0.104
910.84	0.104
911.27	0.102
911.70	0.102
912.12	0.101
912.55	0.104
912.98	0.100
913.41	0.099
913.84	0.101
914.26	0.100
914.69	0.102
915.12	0.104
915.55	0.101
915.97	0.101
916.40	0.101
916.83	0.101
917.26	0.107
917.68	0.106
918.11	0.108
918.54	0.107
918.97	0.103
919.39	0.103
919.82	0.107
920.25	0.102
920.67	0.104
921.10	0.105
921.53	0.101
921.96	0.106
922.38	0.108
922.81	0.105
923.24	0.109
923.66	0.108
924.09	0.108
924.52	0.110
924.94	0.108
925.37	0.115
925.80	0.112
926.22	0.114
926.65	0.114
927.08	0.111
927.50	0.116
927.93	0.115
928.36	0.117
928.78	0.117
929.21	0.115
929.64	0.115
930.06	0.122
930.49	0.124
930.92	0.116
931.34	0.121
931.77	0.119
932.20	0.119
932.62	0.118
933.05	0.120
933.47	0.123
933.90	0.126
934.33	0.123
934.75	0.125
935.18	0.130
935.61	0.130
936.03	0.129
936.46	0.132
936.88	0.135
937.31	0.134
937.73	0.139
938.16	0.139
938.59	0.140
939.01	0.145
939.44	0.143
939.86	0.144
940.29	0.147
940.71	0.155
941.14	0.151
941.57	0.152
941.99	0.163
942.42	0.157
942.84	0.157
943.27	0.157
943.69	0.158
944.12	0.167
944.54	0.163
944.97	0.162
945.39	0.175
945.82	0.166
946.24	0.167
946.67	0.174
947.09	0.171
947.52	0.173
947.94	0.177
948.37	0.187
948.79	0.185
949.22	0.189
949.64	0.189
950.07	0.193
950.49	0.199
950.92	0.189
951.34	0.200
951.77	0.202
952.19	0.198
952.62	0.203
953.04	0.210
953.47	0.217
953.89	0.217
954.32	0.213
954.74	0.222
955.17	0.225
955.59	0.220
956.01	0.229
956.44	0.227
956.86	0.230
957.29	0.234
957.71	0.242
958.14	0.235
958.56	0.248
958.98	0.247
959.41	0.246
959.83	0.254
960.26	0.252
960.68	0.256
961.10	0.257
961.53	0.257
961.95	0.258
962.38	0.261
962.80	0.265
963.22	0.260
963.65	0.258
964.07	0.265
964.50	0.261
964.92	0.271
965.34	0.262
965.77	0.265
966.19	0.257
966.61	0.266
967.04	0.266
967.46	0.266
967.88	0.261
968.31	0.263
968.73	0.265
969.15	0.268
969.58	0.270
970.00	0.264
970.42	0.269
970.85	0.270
971.27	0.272
971.69	0.269
972.12	0.264
972.54	0.267
972.96	0.270
973.39	0.273
973.81	0.274
974.23	0.276
974.65	0.273
975.08	0.267
975.50	0.266
975.92	0.270
976.35	0.271
976.77	0.272
977.19	0.271
977.61	0.272
978.04	0.272
978.46	0.270
978.88	0.270
979.30	0.271
979.73	0.272
980.15	0.276
980.57	0.273
980.99	0.270
981.42	0.264
981.84	0.281
982.26	0.272
982.68	0.275
983.11	0.268
983.53	0.278
983.95	0.272
984.37	0.267
984.79	0.268
985.22	0.267
985.64	0.272
986.06	0.261
986.48	0.275
986.90	0.270
987.33	0.265
987.75	0.269
988.17	0.268
988.59	0.269
989.01	0.262
989.43	0.258
989.86	0.268
990.28	0.258
990.70	0.265
991.12	0.261
991.54	0.260
991.96	0.260
992.39	0.255
992.81	0.256
993.23	0.257
993.65	0.258
994.07	0.257
994.49	0.253
994.91	0.256
995.34	0.254
995.76	0.261
996.18	0.263
996.60	0.246
997.02	0.253
997.44	0.249
997.86	0.251
998.28	0.244
998.70	0.249
999.12	0.245
999.55	0.251
999.97	0.245
1000.39	0.251
1000.81	0.247
1001.23	0.236
1001.65	0.247
1002.07	0.241
1002.49	0.239
1002.91	0.246
1003.33	0.239
1003.75	0.244
1004.17	0.234
1004.59	0.245
1005.01	0.237
1005.43	0.231
1005.85	0.236
1006.28	0.237
1006.70	0.234
1007.12	0.228
1007.54	0.239
1007.96	0.232
1008.38	0.222
1008.80	0.231
1009.22	0.233
1009.64	0.233
1010.06	0.227
1010.48	0.231
1010.90	0.229
1011.32	0.235
1011.74	0.217
1012.16	0.221
1012.58	0.223
1013.00	0.214
1013.42	0.214
1013.84	0.217
1014.26	0.212
1014.67	0.214
1015.09	0.209
1015.51	0.220
1015.93	0.225
1016.35	0.197
1016.77	0.210
1017.19	0.211
1017.61	0.207
1018.03	0.211
1018.45	0.205
1018.87	0.209
1019.29	0.201
1019.71	0.202
1020.13	0.204
1020.55	0.215
1020.97	0.184
1021.38	0.205
1021.80	0.205
1022.22	0.202
1022.64	0.196
1023.06	0.206
1023.48	0.199
1023.90	0.199
1024.32	0.191
1024.74	0.186
1025.15	0.199
1025.57	0.192
1025.99	0.195
1026.41	0.195
1026.83	0.190
1027.25	0.193
1027.67	0.195
1028.08	0.189
1028.50	0.190
1028.92	0.184
1029.34	0.183
1029.76	0.191
1030.18	0.189
1030.60	0.181
1031.01	0.188
1031.43	0.164
1031.85	0.187
1032.27	0.179
1032.69	0.159
1033.10	0.178
1033.52	0.184
1033.94	0.176
1034.36	0.176
1034.78	0.180
1035.19	0.172
1035.61	0.188
1036.03	0.167
1036.45	0.186
1036.87	0.174
1037.28	0.164
1037.70	0.169
1038.12	0.188
1038.54	0.173
1038.95	0.161
1039.37	0.156
1039.79	0.175
1040.21	0.178
1040.62	0.132
1041.04	0.181
1041.46	0.191
1041.88	0.156
1042.29	0.162
1042.71	0.163
1043.13	0.148
1043.55	0.160
1043.96	0.171
1044.38	0.159
1044.80	0.197
1045.21	0.161
1045.63	0.174
1046.05	0.169
1046.47	0.151
1046.88	0.176
1047.30	0.166
1047.72	0.187
1048.13	0.147
1048.55	0.184
1048.97	0.183
1049.38	0.145
1049.80	0.145
1050.22	0.174
1050.63	0.175
1051.05	0.133
1051.47	0.180
1051.88	0.155
1052.30	0.150
1052.72	0.164
1053.13	0.163
1053.55	0.144
1053.97	0.135
1054.38	0.168
1054.80	0.180
1055.21	0.169
1055.63	0.125
1056.05	0.169
1056.46	0.187
1056.88	0.188
1057.29	0.188
1057.71	0.208
1058.13	0.166
1058.54	0.139
1058.96	0.147
1059.37	0.206
1059.79	0.185
1060.21	0.162
1060.62	0.171
1061.04	0.215
1061.45	0.185
1061.87	0.196
1062.28	0.174
1062.70	0.213
1063.12	0.176
1063.53	0.196
1063.95	0.202
1064.36	0.182
1064.78	0.154
1065.19	0.190
1065.61	0.225
1066.02	0.128
1066.44	0.236
1066.85	0.255
1067.27	0.158
1067.68	0.122
1068.10	0.200
1068.51	0.214
1068.93	0.218
1069.35	0.242
1069.76	0.265
1070.17	0.297
1070.59	0.125
1071.00	0.271
1071.42	0.221
1071.83	0.280
1072.25	0.338
1072.66	0.320
1073.08	0.272
1073.49	0.357
1073.91	0.339
1074.32	0.400
1074.74	0.503
1075.15	0.295
1075.57	0.348
1075.98	0.394
1076.40	0.283
1076.81	0.327
1077.22	0.690
1077.64	0.592
1078.05	0.394
1078.47	0.341
1078.88	0.614
1079.30	0.313
1079.71	0.268
1080.12	0.617
1080.54	0.773
1080.95	0.610
1081.37	0.736
1081.78	-0.000
1082.19	0.580
1082.61	0.628
1083.02	-0.000
1083.44	1.087
1083.85	0.350
1084.26	0.257
1084.68	-0.000
1085.09	-0.000
1085.50	0.707
1085.92	-0.000
1086.33	-0.000
1086.74	-0.000
1087.16	-0.000
1087.57	-0.000
1087.98	-0.000
1088.40	1.811
1088.81	0.537
1089.22	0.890
1089.64	0.457
1090.05	1.400
1090.46	-0.000
1090.88	-0.000
1091.29	-0.000
1091.70	-0.000
1092.12	-0.000
1092.53	-0.000
1092.94	0.709
1093.36	-0.000
1093.77	-0.000
1094.18	1.584
1094.59	-0.000
1095.01	-0.000
1095.42	-0.000
1095.83	-0.000
1096.25	-0.000
1096.66	-0.000
1097.07	-0.000
1097.48	0.954
1097.90	-0.000
1098.31	-0.000
1098.72	-0.000
1099.13	-0.000
>>>>>End Processed Spectral Data<<<<<
