SpectraSuite Data File
++++++++++++++++++++++++++++++++++++
Date: Wed May 04 17:11:33 CEST 2016
User: spectrasuite
Dark Spectrum Present: Yes
Reference Spectrum Present: Yes
Number of Sampled Component Spectra: 1
Spectrometers: HR+C0708
Integration Time (usec): 1000 (HR+C0708)
Spectra Averaged: 10 (HR+C0708)
Boxcar Smoothing: 0 (HR+C0708)
Correct for Electrical Dark: No (HR+C0708)
Strobe/Lamp Enabled: No (HR+C0708)
Correct for Detector Non-linearity: No (HR+C0708)
Correct for Stray Light: No (HR+C0708)
Number of Pixels in Processed Spectrum: 2048
>>>>>Begin Processed Spectral Data<<<<<
188.76	-0.000
189.23	-0.000
189.70	-0.000
190.17	-0.000
190.64	-0.000
191.12	-0.000
191.59	-0.000
192.06	-0.000
192.53	-0.000
193.01	-0.000
193.48	-0.000
193.95	-0.000
194.42	-0.000
194.90	-0.000
195.37	-0.000
195.84	-0.000
196.31	-0.000
196.78	-0.000
197.26	-0.000
197.73	-0.000
198.20	-0.000
198.67	-0.000
199.14	-0.000
199.62	-0.000
200.09	-0.000
200.56	-0.000
201.03	-0.000
201.50	-0.000
201.97	-0.000
202.45	-0.000
202.92	-0.000
203.39	-0.000
203.86	-0.000
204.33	-0.000
204.80	-0.000
205.28	-0.000
205.75	-0.000
206.22	-0.000
206.69	-0.000
207.16	-0.000
207.63	-0.000
208.11	-0.000
208.58	1.599
209.05	-0.000
209.52	-0.000
209.99	-0.000
210.46	-0.000
210.93	-0.000
211.41	-0.000
211.88	-0.000
212.35	-0.000
212.82	-0.000
213.29	-0.000
213.76	-0.000
214.23	-0.000
214.70	-0.000
215.18	-0.000
215.65	-0.000
216.12	-0.000
216.59	-0.000
217.06	1.140
217.53	-0.000
218.00	-0.000
218.47	-0.000
218.94	-0.000
219.41	-0.000
219.89	-0.000
220.36	1.300
220.83	-0.000
221.30	-0.000
221.77	-0.000
222.24	2.025
222.71	-0.000
223.18	-0.000
223.65	1.148
224.12	-0.000
224.59	-0.000
225.06	-0.000
225.54	1.468
226.01	-0.000
226.48	-0.000
226.95	-0.000
227.42	-0.000
227.89	-0.000
228.36	-0.000
228.83	-0.000
229.30	-0.000
229.77	-0.000
230.24	-0.000
230.71	-0.000
231.18	-0.000
231.65	-0.000
232.12	-0.000
232.59	-0.000
233.06	-0.000
233.53	-0.000
234.00	-0.000
234.47	-0.000
234.94	-0.000
235.41	-0.000
235.88	-0.000
236.35	-0.000
236.82	2.832
237.29	2.880
237.76	2.872
238.23	-0.000
238.70	-0.000
239.17	-0.000
239.64	-0.000
240.11	-0.000
240.58	3.033
241.05	-0.000
241.52	-0.000
241.99	2.749
242.46	2.989
242.93	-0.000
243.40	-0.000
243.87	-0.000
244.34	2.715
244.81	-0.000
245.28	4.027
245.75	3.240
246.22	3.237
246.69	-0.000
247.16	-0.000
247.63	2.746
248.10	-0.000
248.57	-0.000
249.04	3.043
249.51	2.914
249.98	-0.000
250.45	2.820
250.92	2.739
251.39	2.883
251.85	2.568
252.32	2.291
252.79	2.178
253.26	1.955
253.73	1.877
254.20	1.730
254.67	1.611
255.14	1.566
255.61	1.458
256.08	1.386
256.55	1.340
257.02	1.292
257.49	1.235
257.95	1.189
258.42	1.145
258.89	1.118
259.36	1.075
259.83	1.046
260.30	1.026
260.77	0.997
261.24	0.969
261.71	0.953
262.17	0.936
262.64	0.916
263.11	0.898
263.58	0.877
264.05	0.864
264.52	0.845
264.99	0.835
265.46	0.820
265.92	0.805
266.39	0.792
266.86	0.781
267.33	0.772
267.80	0.764
268.27	0.750
268.74	0.739
269.20	0.728
269.67	0.720
270.14	0.707
270.61	0.704
271.08	0.696
271.55	0.686
272.01	0.683
272.48	0.668
272.95	0.664
273.42	0.657
273.89	0.652
274.36	0.641
274.82	0.633
275.29	0.634
275.76	0.627
276.23	0.623
276.70	0.617
277.16	0.612
277.63	0.611
278.10	0.601
278.57	0.601
279.04	0.598
279.50	0.595
279.97	0.590
280.44	0.586
280.91	0.584
281.38	0.578
281.84	0.576
282.31	0.577
282.78	0.576
283.25	0.573
283.72	0.571
284.18	0.568
284.65	0.567
285.12	0.564
285.59	0.564
286.05	0.565
286.52	0.564
286.99	0.564
287.46	0.563
287.92	0.560
288.39	0.559
288.86	0.558
289.33	0.558
289.79	0.554
290.26	0.553
290.73	0.552
291.20	0.547
291.66	0.546
292.13	0.547
292.60	0.540
293.07	0.534
293.53	0.531
294.00	0.527
294.47	0.524
294.93	0.518
295.40	0.511
295.87	0.505
296.34	0.497
296.80	0.492
297.27	0.482
297.74	0.479
298.20	0.474
298.67	0.463
299.14	0.459
299.60	0.452
300.07	0.443
300.54	0.436
301.01	0.429
301.47	0.422
301.94	0.415
302.41	0.409
302.87	0.400
303.34	0.396
303.81	0.388
304.27	0.384
304.74	0.378
305.21	0.370
305.67	0.363
306.14	0.358
306.61	0.352
307.07	0.348
307.54	0.344
308.01	0.334
308.47	0.334
308.94	0.327
309.40	0.325
309.87	0.323
310.34	0.317
310.80	0.314
311.27	0.310
311.74	0.309
312.20	0.304
312.67	0.304
313.13	0.298
313.60	0.297
314.07	0.297
314.53	0.292
315.00	0.286
315.47	0.288
315.93	0.287
316.40	0.285
316.86	0.282
317.33	0.280
317.80	0.279
318.26	0.278
318.73	0.279
319.19	0.276
319.66	0.273
320.13	0.269
320.59	0.271
321.06	0.271
321.52	0.267
321.99	0.267
322.45	0.262
322.92	0.262
323.39	0.264
323.85	0.263
324.32	0.257
324.78	0.259
325.25	0.252
325.71	0.255
326.18	0.253
326.64	0.252
327.11	0.248
327.58	0.250
328.04	0.249
328.51	0.246
328.97	0.245
329.44	0.242
329.90	0.239
330.37	0.237
330.83	0.234
331.30	0.235
331.76	0.233
332.23	0.232
332.69	0.230
333.16	0.230
333.62	0.225
334.09	0.225
334.56	0.221
335.02	0.218
335.49	0.219
335.95	0.216
336.42	0.214
336.88	0.212
337.35	0.207
337.81	0.208
338.28	0.209
338.74	0.207
339.20	0.209
339.67	0.209
340.13	0.209
340.60	0.206
341.06	0.201
341.53	0.198
341.99	0.202
342.46	0.197
342.92	0.196
343.39	0.193
343.85	0.192
344.32	0.191
344.78	0.192
345.25	0.195
345.71	0.193
346.17	0.193
346.64	0.196
347.10	0.191
347.57	0.186
348.03	0.184
348.50	0.184
348.96	0.186
349.43	0.184
349.89	0.185
350.35	0.183
350.82	0.184
351.28	0.185
351.75	0.181
352.21	0.189
352.67	0.179
353.14	0.181
353.60	0.178
354.07	0.177
354.53	0.178
355.00	0.173
355.46	0.171
355.92	0.171
356.39	0.172
356.85	0.166
357.31	0.165
357.78	0.165
358.24	0.165
358.71	0.167
359.17	0.167
359.63	0.164
360.10	0.163
360.56	0.163
361.03	0.162
361.49	0.161
361.95	0.159
362.42	0.162
362.88	0.162
363.34	0.164
363.81	0.161
364.27	0.162
364.73	0.162
365.20	0.160
365.66	0.158
366.12	0.161
366.59	0.158
367.05	0.159
367.51	0.162
367.98	0.157
368.44	0.158
368.90	0.157
369.37	0.159
369.83	0.157
370.29	0.155
370.76	0.153
371.22	0.157
371.68	0.152
372.15	0.154
372.61	0.150
373.07	0.154
373.54	0.149
374.00	0.150
374.46	0.150
374.92	0.151
375.39	0.150
375.85	0.153
376.31	0.152
376.78	0.151
377.24	0.149
377.70	0.149
378.16	0.149
378.63	0.152
379.09	0.152
379.55	0.152
380.01	0.151
380.48	0.152
380.94	0.150
381.40	0.150
381.87	0.150
382.33	0.148
382.79	0.148
383.25	0.146
383.72	0.148
384.18	0.146
384.64	0.151
385.10	0.146
385.56	0.146
386.03	0.146
386.49	0.144
386.95	0.145
387.41	0.148
387.88	0.143
388.34	0.141
388.80	0.145
389.26	0.147
389.72	0.147
390.19	0.140
390.65	0.142
391.11	0.142
391.57	0.143
392.04	0.144
392.50	0.143
392.96	0.142
393.42	0.141
393.88	0.144
394.34	0.141
394.81	0.144
395.27	0.141
395.73	0.138
396.19	0.140
396.65	0.138
397.12	0.138
397.58	0.138
398.04	0.138
398.50	0.141
398.96	0.139
399.42	0.143
399.89	0.142
400.35	0.140
400.81	0.136
401.27	0.140
401.73	0.136
402.19	0.137
402.65	0.134
403.12	0.135
403.58	0.136
404.04	0.134
404.50	0.132
404.96	0.134
405.42	0.133
405.88	0.135
406.34	0.140
406.81	0.134
407.27	0.133
407.73	0.131
408.19	0.133
408.65	0.130
409.11	0.131
409.57	0.132
410.03	0.133
410.49	0.133
410.96	0.132
411.42	0.131
411.88	0.128
412.34	0.126
412.80	0.129
413.26	0.129
413.72	0.128
414.18	0.128
414.64	0.131
415.10	0.130
415.56	0.129
416.02	0.129
416.48	0.130
416.95	0.130
417.41	0.124
417.87	0.130
418.33	0.128
418.79	0.125
419.25	0.129
419.71	0.126
420.17	0.125
420.63	0.123
421.09	0.122
421.55	0.126
422.01	0.124
422.47	0.130
422.93	0.130
423.39	0.128
423.85	0.124
424.31	0.126
424.77	0.123
425.23	0.125
425.69	0.127
426.15	0.129
426.61	0.127
427.07	0.122
427.53	0.124
427.99	0.122
428.45	0.126
428.91	0.122
429.37	0.122
429.83	0.121
430.29	0.122
430.75	0.125
431.21	0.127
431.67	0.131
432.13	0.130
432.59	0.124
433.05	0.123
433.51	0.120
433.97	0.118
434.43	0.127
434.89	0.130
435.35	0.124
435.81	0.126
436.27	0.124
436.73	0.123
437.19	0.127
437.65	0.123
438.11	0.124
438.57	0.125
439.03	0.124
439.48	0.123
439.94	0.124
440.40	0.122
440.86	0.121
441.32	0.121
441.78	0.122
442.24	0.121
442.70	0.123
443.16	0.121
443.62	0.123
444.08	0.119
444.54	0.121
444.99	0.118
445.45	0.120
445.91	0.122
446.37	0.121
446.83	0.121
447.29	0.121
447.75	0.119
448.21	0.123
448.67	0.120
449.12	0.120
449.58	0.121
450.04	0.121
450.50	0.120
450.96	0.119
451.42	0.123
451.88	0.120
452.34	0.117
452.79	0.119
453.25	0.122
453.71	0.120
454.17	0.117
454.63	0.122
455.09	0.117
455.55	0.117
456.00	0.116
456.46	0.117
456.92	0.119
457.38	0.118
457.84	0.115
458.30	0.119
458.75	0.116
459.21	0.116
459.67	0.113
460.13	0.116
460.59	0.114
461.04	0.116
461.50	0.117
461.96	0.118
462.42	0.116
462.88	0.115
463.33	0.114
463.79	0.116
464.25	0.114
464.71	0.118
465.17	0.115
465.62	0.115
466.08	0.117
466.54	0.119
467.00	0.117
467.46	0.118
467.91	0.119
468.37	0.117
468.83	0.116
469.29	0.117
469.74	0.117
470.20	0.117
470.66	0.119
471.12	0.118
471.57	0.115
472.03	0.117
472.49	0.118
472.95	0.119
473.40	0.118
473.86	0.118
474.32	0.116
474.78	0.117
475.23	0.118
475.69	0.117
476.15	0.119
476.60	0.120
477.06	0.118
477.52	0.116
477.98	0.118
478.43	0.120
478.89	0.118
479.35	0.119
479.80	0.119
480.26	0.113
480.72	0.114
481.18	0.114
481.63	0.118
482.09	0.116
482.55	0.113
483.00	0.114
483.46	0.116
483.92	0.115
484.37	0.116
484.83	0.115
485.29	0.115
485.74	0.112
486.20	0.114
486.66	0.117
487.11	0.116
487.57	0.115
488.03	0.114
488.48	0.118
488.94	0.115
489.40	0.114
489.85	0.115
490.31	0.115
490.77	0.114
491.22	0.118
491.68	0.114
492.13	0.115
492.59	0.117
493.05	0.114
493.50	0.115
493.96	0.115
494.42	0.117
494.87	0.116
495.33	0.114
495.78	0.114
496.24	0.116
496.70	0.114
497.15	0.113
497.61	0.114
498.06	0.115
498.52	0.115
498.98	0.114
499.43	0.112
499.89	0.113
500.34	0.113
500.80	0.115
501.25	0.114
501.71	0.113
502.17	0.111
502.62	0.112
503.08	0.110
503.53	0.112
503.99	0.113
504.44	0.113
504.90	0.111
505.36	0.112
505.81	0.114
506.27	0.110
506.72	0.112
507.18	0.112
507.63	0.111
508.09	0.111
508.54	0.109
509.00	0.114
509.45	0.111
509.91	0.113
510.36	0.114
510.82	0.114
511.27	0.113
511.73	0.114
512.19	0.115
512.64	0.112
513.10	0.113
513.55	0.113
514.01	0.113
514.46	0.113
514.92	0.112
515.37	0.111
515.83	0.112
516.28	0.111
516.73	0.112
517.19	0.111
517.64	0.112
518.10	0.113
518.55	0.111
519.01	0.112
519.46	0.110
519.92	0.109
520.37	0.112
520.83	0.110
521.28	0.108
521.74	0.110
522.19	0.110
522.65	0.110
523.10	0.108
523.55	0.112
524.01	0.111
524.46	0.110
524.92	0.109
525.37	0.110
525.83	0.111
526.28	0.110
526.73	0.112
527.19	0.111
527.64	0.110
528.10	0.110
528.55	0.111
529.01	0.113
529.46	0.112
529.91	0.110
530.37	0.111
530.82	0.111
531.28	0.111
531.73	0.111
532.18	0.111
532.64	0.110
533.09	0.111
533.54	0.109
534.00	0.112
534.45	0.110
534.91	0.110
535.36	0.112
535.81	0.111
536.27	0.111
536.72	0.110
537.17	0.112
537.63	0.112
538.08	0.114
538.54	0.111
538.99	0.112
539.44	0.112
539.90	0.116
540.35	0.112
540.80	0.111
541.26	0.113
541.71	0.114
542.16	0.113
542.62	0.116
543.07	0.114
543.52	0.113
543.98	0.114
544.43	0.115
544.88	0.112
545.34	0.115
545.79	0.117
546.24	0.116
546.69	0.115
547.15	0.118
547.60	0.117
548.05	0.117
548.51	0.117
548.96	0.117
549.41	0.116
549.86	0.119
550.32	0.119
550.77	0.118
551.22	0.118
551.68	0.118
552.13	0.119
552.58	0.118
553.03	0.121
553.49	0.119
553.94	0.117
554.39	0.122
554.84	0.122
555.30	0.122
555.75	0.123
556.20	0.123
556.65	0.123
557.11	0.124
557.56	0.123
558.01	0.125
558.46	0.125
558.92	0.123
559.37	0.126
559.82	0.128
560.27	0.126
560.72	0.126
561.18	0.126
561.63	0.128
562.08	0.128
562.53	0.126
562.99	0.129
563.44	0.130
563.89	0.128
564.34	0.129
564.79	0.131
565.25	0.131
565.70	0.131
566.15	0.131
566.60	0.132
567.05	0.133
567.50	0.132
567.96	0.133
568.41	0.135
568.86	0.134
569.31	0.134
569.76	0.136
570.21	0.137
570.67	0.134
571.12	0.138
571.57	0.137
572.02	0.138
572.47	0.139
572.92	0.139
573.37	0.143
573.83	0.142
574.28	0.142
574.73	0.141
575.18	0.144
575.63	0.143
576.08	0.145
576.53	0.145
576.98	0.144
577.44	0.146
577.89	0.148
578.34	0.149
578.79	0.149
579.24	0.150
579.69	0.151
580.14	0.153
580.59	0.154
581.04	0.154
581.49	0.154
581.95	0.156
582.40	0.158
582.85	0.159
583.30	0.159
583.75	0.162
584.20	0.161
584.65	0.163
585.10	0.164
585.55	0.165
586.00	0.166
586.45	0.166
586.90	0.171
587.35	0.168
587.80	0.172
588.25	0.171
588.71	0.173
589.16	0.177
589.61	0.176
590.06	0.177
590.51	0.179
590.96	0.182
591.41	0.183
591.86	0.184
592.31	0.184
592.76	0.187
593.21	0.184
593.66	0.192
594.11	0.193
594.56	0.193
595.01	0.194
595.46	0.194
595.91	0.196
596.36	0.199
596.81	0.201
597.26	0.201
597.71	0.203
598.16	0.205
598.61	0.207
599.06	0.207
599.51	0.211
599.96	0.211
600.41	0.212
600.86	0.216
601.31	0.215
601.76	0.219
602.21	0.221
602.65	0.222
603.10	0.221
603.55	0.222
604.00	0.227
604.45	0.227
604.90	0.227
605.35	0.232
605.80	0.230
606.25	0.231
606.70	0.235
607.15	0.235
607.60	0.236
608.05	0.236
608.50	0.238
608.95	0.239
609.39	0.241
609.84	0.241
610.29	0.245
610.74	0.242
611.19	0.245
611.64	0.247
612.09	0.246
612.54	0.247
612.99	0.247
613.44	0.247
613.88	0.250
614.33	0.249
614.78	0.252
615.23	0.251
615.68	0.251
616.13	0.253
616.58	0.255
617.03	0.254
617.47	0.255
617.92	0.255
618.37	0.255
618.82	0.258
619.27	0.257
619.72	0.258
620.17	0.259
620.61	0.257
621.06	0.261
621.51	0.258
621.96	0.261
622.41	0.260
622.86	0.259
623.30	0.261
623.75	0.262
624.20	0.264
624.65	0.265
625.10	0.265
625.54	0.263
625.99	0.264
626.44	0.268
626.89	0.269
627.34	0.268
627.78	0.270
628.23	0.271
628.68	0.271
629.13	0.270
629.58	0.275
630.02	0.275
630.47	0.278
630.92	0.276
631.37	0.282
631.81	0.281
632.26	0.281
632.71	0.283
633.16	0.284
633.61	0.285
634.05	0.287
634.50	0.288
634.95	0.293
635.40	0.294
635.84	0.295
636.29	0.297
636.74	0.300
637.18	0.300
637.63	0.304
638.08	0.305
638.53	0.306
638.97	0.308
639.42	0.311
639.87	0.312
640.32	0.317
640.76	0.316
641.21	0.321
641.66	0.322
642.10	0.323
642.55	0.326
643.00	0.328
643.44	0.331
643.89	0.336
644.34	0.337
644.79	0.338
645.23	0.341
645.68	0.345
646.13	0.346
646.57	0.353
647.02	0.350
647.47	0.356
647.91	0.358
648.36	0.360
648.81	0.364
649.25	0.367
649.70	0.367
650.15	0.369
650.59	0.374
651.04	0.378
651.48	0.377
651.93	0.378
652.38	0.384
652.82	0.384
653.27	0.382
653.72	0.388
654.16	0.389
654.61	0.391
655.06	0.391
655.50	0.391
655.95	0.390
656.39	0.391
656.84	0.406
657.29	0.407
657.73	0.403
658.18	0.402
658.62	0.403
659.07	0.408
659.52	0.407
659.96	0.408
660.41	0.412
660.85	0.412
661.30	0.414
661.74	0.415
662.19	0.415
662.64	0.415
663.08	0.413
663.53	0.415
663.97	0.414
664.42	0.413
664.86	0.415
665.31	0.414
665.75	0.415
666.20	0.414
666.65	0.414
667.09	0.410
667.54	0.410
667.98	0.408
668.43	0.404
668.87	0.405
669.32	0.403
669.76	0.397
670.21	0.400
670.65	0.394
671.10	0.390
671.54	0.390
671.99	0.385
672.43	0.378
672.88	0.377
673.32	0.371
673.77	0.368
674.21	0.363
674.66	0.356
675.10	0.351
675.55	0.345
675.99	0.341
676.44	0.334
676.88	0.330
677.33	0.324
677.77	0.316
678.22	0.312
678.66	0.303
679.11	0.297
679.55	0.293
679.99	0.284
680.44	0.279
680.88	0.273
681.33	0.269
681.77	0.257
682.22	0.251
682.66	0.246
683.11	0.241
683.55	0.233
683.99	0.228
684.44	0.222
684.88	0.218
685.33	0.211
685.77	0.204
686.21	0.201
686.66	0.195
687.10	0.187
687.55	0.184
687.99	0.180
688.44	0.175
688.88	0.170
689.32	0.167
689.77	0.163
690.21	0.158
690.65	0.156
691.10	0.150
691.54	0.148
691.99	0.145
692.43	0.140
692.87	0.137
693.32	0.136
693.76	0.132
694.20	0.130
694.65	0.127
695.09	0.124
695.53	0.121
695.98	0.119
696.42	0.119
696.86	0.118
697.31	0.113
697.75	0.111
698.19	0.110
698.64	0.109
699.08	0.107
699.52	0.106
699.97	0.104
700.41	0.103
700.85	0.103
701.30	0.099
701.74	0.098
702.18	0.096
702.63	0.096
703.07	0.093
703.51	0.096
703.96	0.094
704.40	0.094
704.84	0.091
705.28	0.092
705.73	0.091
706.17	0.090
706.61	0.091
707.06	0.088
707.50	0.090
707.94	0.089
708.38	0.086
708.83	0.086
709.27	0.087
709.71	0.085
710.15	0.084
710.60	0.085
711.04	0.081
711.48	0.082
711.92	0.084
712.37	0.081
712.81	0.082
713.25	0.084
713.69	0.080
714.13	0.080
714.58	0.082
715.02	0.079
715.46	0.079
715.90	0.080
716.35	0.079
716.79	0.080
717.23	0.082
717.67	0.080
718.11	0.077
718.56	0.081
719.00	0.082
719.44	0.080
719.88	0.081
720.32	0.081
720.76	0.078
721.21	0.082
721.65	0.080
722.09	0.079
722.53	0.081
722.97	0.078
723.41	0.080
723.86	0.078
724.30	0.078
724.74	0.082
725.18	0.079
725.62	0.080
726.06	0.081
726.50	0.083
726.95	0.080
727.39	0.082
727.83	0.081
728.27	0.082
728.71	0.081
729.15	0.081
729.59	0.079
730.03	0.081
730.48	0.079
730.92	0.081
731.36	0.081
731.80	0.083
732.24	0.083
732.68	0.083
733.12	0.084
733.56	0.082
734.00	0.082
734.44	0.081
734.89	0.081
735.33	0.082
735.77	0.085
736.21	0.083
736.65	0.083
737.09	0.085
737.53	0.084
737.97	0.084
738.41	0.083
738.85	0.085
739.29	0.084
739.73	0.085
740.17	0.081
740.61	0.081
741.05	0.087
741.49	0.083
741.93	0.082
742.37	0.083
742.81	0.083
743.26	0.085
743.70	0.083
744.14	0.083
744.58	0.083
745.02	0.081
745.46	0.083
745.90	0.081
746.34	0.083
746.78	0.087
747.22	0.084
747.66	0.082
748.10	0.084
748.54	0.082
748.98	0.083
749.42	0.086
749.86	0.082
750.29	0.084
750.73	0.086
751.17	0.085
751.61	0.084
752.05	0.082
752.49	0.082
752.93	0.083
753.37	0.083
753.81	0.083
754.25	0.083
754.69	0.085
755.13	0.085
755.57	0.083
756.01	0.081
756.45	0.080
756.89	0.083
757.33	0.081
757.77	0.083
758.21	0.085
758.64	0.080
759.08	0.080
759.52	0.082
759.96	0.083
760.40	0.081
760.84	0.080
761.28	0.081
761.72	0.083
762.16	0.080
762.60	0.082
763.03	0.082
763.47	0.081
763.91	0.082
764.35	0.082
764.79	0.081
765.23	0.081
765.67	0.080
766.11	0.082
766.54	0.085
766.98	0.081
767.42	0.082
767.86	0.082
768.30	0.081
768.74	0.081
769.17	0.082
769.61	0.081
770.05	0.082
770.49	0.084
770.93	0.079
771.37	0.082
771.80	0.081
772.24	0.079
772.68	0.082
773.12	0.079
773.56	0.082
774.00	0.081
774.43	0.081
774.87	0.078
775.31	0.083
775.75	0.078
776.19	0.083
776.62	0.080
777.06	0.081
777.50	0.081
777.94	0.079
778.37	0.081
778.81	0.083
779.25	0.076
779.69	0.079
780.13	0.082
780.56	0.077
781.00	0.081
781.44	0.079
781.88	0.082
782.31	0.077
782.75	0.078
783.19	0.079
783.63	0.082
784.06	0.079
784.50	0.081
784.94	0.083
785.37	0.079
785.81	0.079
786.25	0.081
786.69	0.082
787.12	0.082
787.56	0.081
788.00	0.080
788.43	0.081
788.87	0.082
789.31	0.082
789.75	0.080
790.18	0.079
790.62	0.081
791.06	0.082
791.49	0.083
791.93	0.078
792.37	0.080
792.80	0.082
793.24	0.081
793.68	0.082
794.11	0.080
794.55	0.081
794.99	0.079
795.42	0.084
795.86	0.084
796.30	0.084
796.73	0.078
797.17	0.078
797.61	0.080
798.04	0.081
798.48	0.080
798.91	0.081
799.35	0.081
799.79	0.079
800.22	0.083
800.66	0.079
801.10	0.085
801.53	0.083
801.97	0.080
802.40	0.079
802.84	0.081
803.28	0.080
803.71	0.082
804.15	0.083
804.58	0.084
805.02	0.083
805.46	0.077
805.89	0.080
806.33	0.081
806.76	0.081
807.20	0.081
807.63	0.082
808.07	0.081
808.51	0.084
808.94	0.084
809.38	0.081
809.81	0.083
810.25	0.083
810.68	0.083
811.12	0.079
811.55	0.081
811.99	0.081
812.42	0.081
812.86	0.083
813.29	0.082
813.73	0.079
814.17	0.076
814.60	0.076
815.04	0.076
815.47	0.081
815.91	0.077
816.34	0.082
816.78	0.084
817.21	0.085
817.65	0.080
818.08	0.079
818.52	0.079
818.95	0.078
819.39	0.083
819.82	0.083
820.25	0.083
820.69	0.084
821.12	0.087
821.56	0.081
821.99	0.083
822.43	0.081
822.86	0.085
823.30	0.083
823.73	0.084
824.17	0.085
824.60	0.082
825.04	0.082
825.47	0.084
825.90	0.081
826.34	0.083
826.77	0.083
827.21	0.086
827.64	0.081
828.08	0.089
828.51	0.086
828.94	0.082
829.38	0.082
829.81	0.086
830.25	0.086
830.68	0.090
831.11	0.090
831.55	0.090
831.98	0.091
832.42	0.090
832.85	0.089
833.28	0.092
833.72	0.089
834.15	0.089
834.58	0.085
835.02	0.087
835.45	0.090
835.88	0.088
836.32	0.094
836.75	0.092
837.19	0.093
837.62	0.089
838.05	0.091
838.49	0.092
838.92	0.091
839.35	0.093
839.79	0.088
840.22	0.093
840.65	0.092
841.09	0.090
841.52	0.095
841.95	0.088
842.39	0.089
842.82	0.095
843.25	0.093
843.68	0.093
844.12	0.093
844.55	0.091
844.98	0.093
845.42	0.088
845.85	0.089
846.28	0.095
846.71	0.091
847.15	0.090
847.58	0.093
848.01	0.092
848.45	0.091
848.88	0.088
849.31	0.088
849.74	0.094
850.18	0.091
850.61	0.102
851.04	0.094
851.47	0.090
851.91	0.089
852.34	0.094
852.77	0.096
853.20	0.097
853.64	0.094
854.07	0.094
854.50	0.094
854.93	0.088
855.36	0.093
855.80	0.096
856.23	0.102
856.66	0.097
857.09	0.100
857.52	0.095
857.96	0.093
858.39	0.097
858.82	0.095
859.25	0.095
859.68	0.097
860.12	0.096
860.55	0.090
860.98	0.094
861.41	0.099
861.84	0.101
862.27	0.099
862.71	0.102
863.14	0.096
863.57	0.098
864.00	0.096
864.43	0.091
864.86	0.101
865.30	0.099
865.73	0.101
866.16	0.099
866.59	0.102
867.02	0.093
867.45	0.099
867.88	0.103
868.31	0.103
868.75	0.100
869.18	0.099
869.61	0.104
870.04	0.098
870.47	0.101
870.90	0.106
871.33	0.104
871.76	0.099
872.19	0.095
872.62	0.099
873.06	0.104
873.49	0.101
873.92	0.107
874.35	0.107
874.78	0.106
875.21	0.098
875.64	0.105
876.07	0.102
876.50	0.094
876.93	0.098
877.36	0.105
877.79	0.102
878.22	0.096
878.65	0.095
879.08	0.107
879.51	0.099
879.94	0.104
880.37	0.106
880.80	0.102
881.23	0.103
881.67	0.100
882.10	0.100
882.53	0.103
882.96	0.108
883.39	0.108
883.82	0.100
884.25	0.105
884.68	0.101
885.11	0.103
885.54	0.104
885.97	0.098
886.39	0.102
886.82	0.103
887.25	0.105
887.68	0.103
888.11	0.100
888.54	0.104
888.97	0.100
889.40	0.108
889.83	0.104
890.26	0.105
890.69	0.102
891.12	0.104
891.55	0.106
891.98	0.107
892.41	0.105
892.84	0.107
893.27	0.103
893.70	0.105
894.13	0.100
894.56	0.102
894.98	0.106
895.41	0.105
895.84	0.109
896.27	0.108
896.70	0.105
897.13	0.099
897.56	0.105
897.99	0.107
898.42	0.106
898.85	0.106
899.27	0.106
899.70	0.108
900.13	0.110
900.56	0.114
900.99	0.107
901.42	0.101
901.85	0.105
902.28	0.112
902.70	0.107
903.13	0.105
903.56	0.112
903.99	0.108
904.42	0.109
904.85	0.103
905.27	0.110
905.70	0.105
906.13	0.107
906.56	0.111
906.99	0.110
907.42	0.108
907.84	0.106
908.27	0.110
908.70	0.103
909.13	0.105
909.56	0.106
909.98	0.110
910.41	0.106
910.84	0.103
911.27	0.102
911.70	0.107
912.12	0.103
912.55	0.106
912.98	0.105
913.41	0.104
913.84	0.104
914.26	0.105
914.69	0.103
915.12	0.107
915.55	0.103
915.97	0.105
916.40	0.106
916.83	0.102
917.26	0.106
917.68	0.108
918.11	0.109
918.54	0.107
918.97	0.110
919.39	0.111
919.82	0.108
920.25	0.107
920.67	0.103
921.10	0.106
921.53	0.107
921.96	0.106
922.38	0.108
922.81	0.108
923.24	0.112
923.66	0.111
924.09	0.110
924.52	0.112
924.94	0.109
925.37	0.115
925.80	0.114
926.22	0.113
926.65	0.117
927.08	0.114
927.50	0.119
927.93	0.118
928.36	0.116
928.78	0.120
929.21	0.118
929.64	0.122
930.06	0.124
930.49	0.125
930.92	0.120
931.34	0.124
931.77	0.128
932.20	0.124
932.62	0.126
933.05	0.123
933.47	0.124
933.90	0.129
934.33	0.130
934.75	0.134
935.18	0.132
935.61	0.133
936.03	0.137
936.46	0.139
936.88	0.140
937.31	0.141
937.73	0.151
938.16	0.145
938.59	0.149
939.01	0.154
939.44	0.151
939.86	0.154
940.29	0.157
940.71	0.162
941.14	0.159
941.57	0.158
941.99	0.167
942.42	0.169
942.84	0.167
943.27	0.168
943.69	0.172
944.12	0.176
944.54	0.176
944.97	0.175
945.39	0.186
945.82	0.182
946.24	0.168
946.67	0.188
947.09	0.192
947.52	0.187
947.94	0.193
948.37	0.193
948.79	0.195
949.22	0.199
949.64	0.200
950.07	0.200
950.49	0.207
950.92	0.202
951.34	0.209
951.77	0.211
952.19	0.207
952.62	0.210
953.04	0.216
953.47	0.225
953.89	0.223
954.32	0.219
954.74	0.235
955.17	0.236
955.59	0.231
956.01	0.239
956.44	0.244
956.86	0.236
957.29	0.251
957.71	0.250
958.14	0.250
958.56	0.254
958.98	0.256
959.41	0.255
959.83	0.261
960.26	0.265
960.68	0.264
961.10	0.264
961.53	0.261
961.95	0.270
962.38	0.268
962.80	0.267
963.22	0.273
963.65	0.273
964.07	0.270
964.50	0.266
964.92	0.277
965.34	0.274
965.77	0.269
966.19	0.269
966.61	0.276
967.04	0.277
967.46	0.271
967.88	0.270
968.31	0.279
968.73	0.280
969.15	0.278
969.58	0.278
970.00	0.276
970.42	0.281
970.85	0.274
971.27	0.283
971.69	0.276
972.12	0.275
972.54	0.279
972.96	0.280
973.39	0.283
973.81	0.279
974.23	0.285
974.65	0.282
975.08	0.278
975.50	0.282
975.92	0.283
976.35	0.280
976.77	0.283
977.19	0.282
977.61	0.284
978.04	0.278
978.46	0.275
978.88	0.278
979.30	0.281
979.73	0.284
980.15	0.281
980.57	0.280
980.99	0.289
981.42	0.281
981.84	0.283
982.26	0.281
982.68	0.283
983.11	0.290
983.53	0.280
983.95	0.281
984.37	0.278
984.79	0.280
985.22	0.281
985.64	0.280
986.06	0.272
986.48	0.277
986.90	0.276
987.33	0.278
987.75	0.279
988.17	0.281
988.59	0.272
989.01	0.271
989.43	0.269
989.86	0.267
990.28	0.266
990.70	0.273
991.12	0.266
991.54	0.273
991.96	0.272
992.39	0.263
992.81	0.267
993.23	0.265
993.65	0.266
994.07	0.263
994.49	0.267
994.91	0.264
995.34	0.261
995.76	0.268
996.18	0.267
996.60	0.260
997.02	0.261
997.44	0.267
997.86	0.259
998.28	0.256
998.70	0.260
999.12	0.250
999.55	0.260
999.97	0.256
1000.39	0.256
1000.81	0.257
1001.23	0.250
1001.65	0.255
1002.07	0.249
1002.49	0.248
1002.91	0.251
1003.33	0.255
1003.75	0.244
1004.17	0.242
1004.59	0.258
1005.01	0.256
1005.43	0.248
1005.85	0.249
1006.28	0.238
1006.70	0.244
1007.12	0.240
1007.54	0.242
1007.96	0.242
1008.38	0.245
1008.80	0.246
1009.22	0.251
1009.64	0.243
1010.06	0.238
1010.48	0.243
1010.90	0.245
1011.32	0.239
1011.74	0.232
1012.16	0.232
1012.58	0.237
1013.00	0.225
1013.42	0.227
1013.84	0.237
1014.26	0.237
1014.67	0.228
1015.09	0.234
1015.51	0.230
1015.93	0.225
1016.35	0.222
1016.77	0.231
1017.19	0.236
1017.61	0.211
1018.03	0.215
1018.45	0.230
1018.87	0.226
1019.29	0.219
1019.71	0.212
1020.13	0.218
1020.55	0.225
1020.97	0.206
1021.38	0.213
1021.80	0.215
1022.22	0.216
1022.64	0.217
1023.06	0.229
1023.48	0.216
1023.90	0.208
1024.32	0.218
1024.74	0.208
1025.15	0.215
1025.57	0.223
1025.99	0.217
1026.41	0.214
1026.83	0.207
1027.25	0.209
1027.67	0.222
1028.08	0.208
1028.50	0.208
1028.92	0.199
1029.34	0.206
1029.76	0.213
1030.18	0.199
1030.60	0.202
1031.01	0.216
1031.43	0.191
1031.85	0.203
1032.27	0.208
1032.69	0.193
1033.10	0.202
1033.52	0.206
1033.94	0.200
1034.36	0.204
1034.78	0.203
1035.19	0.196
1035.61	0.209
1036.03	0.194
1036.45	0.213
1036.87	0.208
1037.28	0.178
1037.70	0.190
1038.12	0.202
1038.54	0.204
1038.95	0.203
1039.37	0.194
1039.79	0.199
1040.21	0.199
1040.62	0.168
1041.04	0.213
1041.46	0.205
1041.88	0.208
1042.29	0.206
1042.71	0.202
1043.13	0.202
1043.55	0.199
1043.96	0.211
1044.38	0.185
1044.80	0.208
1045.21	0.191
1045.63	0.191
1046.05	0.218
1046.47	0.185
1046.88	0.205
1047.30	0.201
1047.72	0.209
1048.13	0.179
1048.55	0.220
1048.97	0.208
1049.38	0.214
1049.80	0.181
1050.22	0.200
1050.63	0.208
1051.05	0.186
1051.47	0.214
1051.88	0.206
1052.30	0.216
1052.72	0.200
1053.13	0.196
1053.55	0.209
1053.97	0.217
1054.38	0.191
1054.80	0.224
1055.21	0.220
1055.63	0.201
1056.05	0.216
1056.46	0.255
1056.88	0.224
1057.29	0.215
1057.71	0.299
1058.13	0.229
1058.54	0.231
1058.96	0.234
1059.37	0.263
1059.79	0.248
1060.21	0.251
1060.62	0.229
1061.04	0.306
1061.45	0.265
1061.87	0.272
1062.28	0.338
1062.70	0.293
1063.12	0.330
1063.53	0.294
1063.95	0.328
1064.36	0.369
1064.78	0.278
1065.19	0.344
1065.61	0.402
1066.02	0.330
1066.44	0.335
1066.85	0.420
1067.27	0.394
1067.68	0.395
1068.10	0.488
1068.51	0.457
1068.93	0.470
1069.35	0.480
1069.76	0.531
1070.17	0.526
1070.59	0.442
1071.00	0.495
1071.42	0.702
1071.83	0.574
1072.25	0.489
1072.66	0.838
1073.08	0.845
1073.49	0.880
1073.91	0.564
1074.32	1.002
1074.74	-0.000
1075.15	0.643
1075.57	0.753
1075.98	1.266
1076.40	0.789
1076.81	1.670
1077.22	-0.000
1077.64	-0.000
1078.05	-0.000
1078.47	-0.000
1078.88	-0.000
1079.30	-0.000
1079.71	-0.000
1080.12	-0.000
1080.54	-0.000
1080.95	-0.000
1081.37	-0.000
1081.78	-0.000
1082.19	-0.000
1082.61	-0.000
1083.02	-0.000
1083.44	-0.000
1083.85	-0.000
1084.26	-0.000
1084.68	-0.000
1085.09	-0.000
1085.50	-0.000
1085.92	-0.000
1086.33	-0.000
1086.74	-0.000
1087.16	-0.000
1087.57	-0.000
1087.98	-0.000
1088.40	-0.000
1088.81	-0.000
1089.22	-0.000
1089.64	-0.000
1090.05	-0.000
1090.46	-0.000
1090.88	-0.000
1091.29	-0.000
1091.70	-0.000
1092.12	-0.000
1092.53	-0.000
1092.94	-0.000
1093.36	-0.000
1093.77	-0.000
1094.18	-0.000
1094.59	-0.000
1095.01	-0.000
1095.42	-0.000
1095.83	-0.000
1096.25	-0.000
1096.66	-0.000
1097.07	-0.000
1097.48	-0.000
1097.90	-0.000
1098.31	-0.000
1098.72	-0.000
1099.13	-0.000
>>>>>End Processed Spectral Data<<<<<
