SpectraSuite Data File
++++++++++++++++++++++++++++++++++++
Date: Wed May 04 15:22:41 CEST 2016
User: spectrasuite
Dark Spectrum Present: Yes
Reference Spectrum Present: Yes
Number of Sampled Component Spectra: 1
Spectrometers: HR+C0708
Integration Time (usec): 1000 (HR+C0708)
Spectra Averaged: 10 (HR+C0708)
Boxcar Smoothing: 0 (HR+C0708)
Correct for Electrical Dark: No (HR+C0708)
Strobe/Lamp Enabled: No (HR+C0708)
Correct for Detector Non-linearity: No (HR+C0708)
Correct for Stray Light: No (HR+C0708)
Number of Pixels in Processed Spectrum: 2048
>>>>>Begin Processed Spectral Data<<<<<
188.76	-0.000
189.23	-0.000
189.70	-0.000
190.17	-0.000
190.64	-0.000
191.12	-0.000
191.59	-0.000
192.06	-0.000
192.53	-0.000
193.01	-0.000
193.48	-0.000
193.95	-0.000
194.42	-0.000
194.90	-0.000
195.37	-0.000
195.84	-0.000
196.31	-0.000
196.78	-0.000
197.26	-0.000
197.73	-0.000
198.20	-0.000
198.67	-0.000
199.14	-0.000
199.62	-0.000
200.09	-0.000
200.56	-0.000
201.03	1.218
201.50	0.858
201.97	-0.000
202.45	-0.000
202.92	0.899
203.39	-0.000
203.86	-0.000
204.33	2.009
204.80	1.317
205.28	-0.000
205.75	-0.000
206.22	0.846
206.69	-0.000
207.16	-0.000
207.63	-0.000
208.11	-0.000
208.58	0.968
209.05	-0.000
209.52	1.163
209.99	1.833
210.46	1.477
210.93	-0.000
211.41	1.563
211.88	-0.000
212.35	-0.000
212.82	-0.000
213.29	-0.000
213.76	-0.000
214.23	-0.000
214.70	1.024
215.18	0.824
215.65	1.198
216.12	1.352
216.59	0.875
217.06	0.801
217.53	-0.000
218.00	0.955
218.47	1.245
218.94	-0.000
219.41	0.906
219.89	1.079
220.36	0.625
220.83	-0.000
221.30	1.327
221.77	2.826
222.24	1.064
222.71	1.039
223.18	1.285
223.65	0.840
224.12	1.171
224.59	1.019
225.06	1.192
225.54	1.167
226.01	-0.000
226.48	1.349
226.95	1.547
227.42	1.782
227.89	2.016
228.36	-0.000
228.83	1.407
229.30	1.857
229.77	1.825
230.24	1.719
230.71	-0.000
231.18	1.825
231.65	-0.000
232.12	2.333
232.59	-0.000
233.06	2.285
233.53	2.013
234.00	2.296
234.47	2.666
234.94	2.923
235.41	2.083
235.88	-0.000
236.35	2.239
236.82	2.878
237.29	2.185
237.76	2.228
238.23	2.868
238.70	2.714
239.17	2.636
239.64	3.117
240.11	2.759
240.58	2.364
241.05	2.919
241.52	2.516
241.99	2.436
242.46	2.840
242.93	2.480
243.40	-0.000
243.87	2.717
244.34	2.581
244.81	2.544
245.28	2.716
245.75	2.684
246.22	3.133
246.69	3.383
247.16	2.713
247.63	2.795
248.10	2.619
248.57	-0.000
249.04	2.964
249.51	2.708
249.98	3.043
250.45	2.685
250.92	3.159
251.39	2.439
251.85	2.261
252.32	2.185
252.79	2.091
253.26	1.916
253.73	1.808
254.20	1.678
254.67	1.574
255.14	1.525
255.61	1.457
256.08	1.385
256.55	1.319
257.02	1.272
257.49	1.215
257.95	1.179
258.42	1.127
258.89	1.106
259.36	1.079
259.83	1.040
260.30	1.014
260.77	0.999
261.24	0.972
261.71	0.951
262.17	0.929
262.64	0.912
263.11	0.889
263.58	0.875
264.05	0.862
264.52	0.845
264.99	0.830
265.46	0.822
265.92	0.805
266.39	0.793
266.86	0.783
267.33	0.776
267.80	0.761
268.27	0.749
268.74	0.742
269.20	0.734
269.67	0.726
270.14	0.714
270.61	0.712
271.08	0.702
271.55	0.692
272.01	0.686
272.48	0.674
272.95	0.671
273.42	0.660
273.89	0.663
274.36	0.654
274.82	0.649
275.29	0.639
275.76	0.635
276.23	0.635
276.70	0.630
277.16	0.628
277.63	0.623
278.10	0.617
278.57	0.614
279.04	0.612
279.50	0.613
279.97	0.607
280.44	0.603
280.91	0.606
281.38	0.601
281.84	0.597
282.31	0.598
282.78	0.595
283.25	0.597
283.72	0.592
284.18	0.593
284.65	0.592
285.12	0.591
285.59	0.591
286.05	0.593
286.52	0.594
286.99	0.591
287.46	0.595
287.92	0.593
288.39	0.589
288.86	0.592
289.33	0.592
289.79	0.588
290.26	0.586
290.73	0.585
291.20	0.586
291.66	0.583
292.13	0.581
292.60	0.576
293.07	0.574
293.53	0.565
294.00	0.560
294.47	0.561
294.93	0.555
295.40	0.547
295.87	0.539
296.34	0.534
296.80	0.527
297.27	0.515
297.74	0.513
298.20	0.505
298.67	0.497
299.14	0.488
299.60	0.482
300.07	0.474
300.54	0.465
301.01	0.456
301.47	0.450
301.94	0.443
302.41	0.434
302.87	0.431
303.34	0.420
303.81	0.412
304.27	0.409
304.74	0.400
305.21	0.391
305.67	0.385
306.14	0.377
306.61	0.375
307.07	0.367
307.54	0.363
308.01	0.357
308.47	0.351
308.94	0.345
309.40	0.343
309.87	0.341
310.34	0.338
310.80	0.335
311.27	0.327
311.74	0.327
312.20	0.322
312.67	0.321
313.13	0.315
313.60	0.314
314.07	0.314
314.53	0.309
315.00	0.306
315.47	0.306
315.93	0.304
316.40	0.304
316.86	0.301
317.33	0.295
317.80	0.296
318.26	0.295
318.73	0.294
319.19	0.295
319.66	0.289
320.13	0.288
320.59	0.288
321.06	0.290
321.52	0.285
321.99	0.285
322.45	0.283
322.92	0.282
323.39	0.280
323.85	0.278
324.32	0.279
324.78	0.278
325.25	0.273
325.71	0.271
326.18	0.270
326.64	0.271
327.11	0.264
327.58	0.265
328.04	0.270
328.51	0.265
328.97	0.263
329.44	0.261
329.90	0.262
330.37	0.259
330.83	0.257
331.30	0.257
331.76	0.251
332.23	0.254
332.69	0.249
333.16	0.249
333.62	0.247
334.09	0.243
334.56	0.243
335.02	0.238
335.49	0.239
335.95	0.237
336.42	0.233
336.88	0.230
337.35	0.229
337.81	0.226
338.28	0.228
338.74	0.226
339.20	0.228
339.67	0.228
340.13	0.227
340.60	0.222
341.06	0.221
341.53	0.218
341.99	0.218
342.46	0.217
342.92	0.216
343.39	0.214
343.85	0.211
344.32	0.211
344.78	0.212
345.25	0.214
345.71	0.213
346.17	0.211
346.64	0.215
347.10	0.208
347.57	0.207
348.03	0.202
348.50	0.205
348.96	0.204
349.43	0.203
349.89	0.203
350.35	0.206
350.82	0.203
351.28	0.204
351.75	0.203
352.21	0.204
352.67	0.198
353.14	0.197
353.60	0.197
354.07	0.195
354.53	0.195
355.00	0.197
355.46	0.193
355.92	0.189
356.39	0.192
356.85	0.190
357.31	0.184
357.78	0.188
358.24	0.189
358.71	0.186
359.17	0.189
359.63	0.184
360.10	0.185
360.56	0.185
361.03	0.182
361.49	0.183
361.95	0.181
362.42	0.182
362.88	0.182
363.34	0.182
363.81	0.180
364.27	0.180
364.73	0.181
365.20	0.180
365.66	0.177
366.12	0.179
366.59	0.179
367.05	0.179
367.51	0.176
367.98	0.178
368.44	0.179
368.90	0.175
369.37	0.177
369.83	0.176
370.29	0.175
370.76	0.172
371.22	0.173
371.68	0.175
372.15	0.172
372.61	0.169
373.07	0.174
373.54	0.172
374.00	0.173
374.46	0.171
374.92	0.174
375.39	0.169
375.85	0.171
376.31	0.172
376.78	0.171
377.24	0.169
377.70	0.172
378.16	0.171
378.63	0.171
379.09	0.170
379.55	0.170
380.01	0.171
380.48	0.167
380.94	0.167
381.40	0.168
381.87	0.169
382.33	0.165
382.79	0.164
383.25	0.168
383.72	0.168
384.18	0.165
384.64	0.165
385.10	0.163
385.56	0.164
386.03	0.167
386.49	0.165
386.95	0.164
387.41	0.165
387.88	0.161
388.34	0.162
388.80	0.165
389.26	0.166
389.72	0.166
390.19	0.162
390.65	0.161
391.11	0.162
391.57	0.164
392.04	0.162
392.50	0.161
392.96	0.163
393.42	0.162
393.88	0.165
394.34	0.162
394.81	0.162
395.27	0.159
395.73	0.157
396.19	0.159
396.65	0.160
397.12	0.157
397.58	0.160
398.04	0.159
398.50	0.159
398.96	0.159
399.42	0.162
399.89	0.162
400.35	0.158
400.81	0.157
401.27	0.158
401.73	0.154
402.19	0.157
402.65	0.154
403.12	0.158
403.58	0.155
404.04	0.152
404.50	0.150
404.96	0.152
405.42	0.154
405.88	0.154
406.34	0.156
406.81	0.153
407.27	0.150
407.73	0.151
408.19	0.150
408.65	0.144
409.11	0.150
409.57	0.149
410.03	0.153
410.49	0.149
410.96	0.150
411.42	0.149
411.88	0.145
412.34	0.143
412.80	0.148
413.26	0.148
413.72	0.147
414.18	0.146
414.64	0.148
415.10	0.146
415.56	0.148
416.02	0.146
416.48	0.148
416.95	0.148
417.41	0.144
417.87	0.147
418.33	0.147
418.79	0.143
419.25	0.146
419.71	0.145
420.17	0.142
420.63	0.142
421.09	0.143
421.55	0.146
422.01	0.142
422.47	0.145
422.93	0.147
423.39	0.145
423.85	0.142
424.31	0.143
424.77	0.144
425.23	0.141
425.69	0.144
426.15	0.146
426.61	0.144
427.07	0.137
427.53	0.141
427.99	0.144
428.45	0.143
428.91	0.141
429.37	0.139
429.83	0.138
430.29	0.141
430.75	0.141
431.21	0.144
431.67	0.145
432.13	0.144
432.59	0.139
433.05	0.141
433.51	0.139
433.97	0.137
434.43	0.145
434.89	0.146
435.35	0.139
435.81	0.142
436.27	0.144
436.73	0.136
437.19	0.139
437.65	0.137
438.11	0.142
438.57	0.140
439.03	0.138
439.48	0.141
439.94	0.139
440.40	0.141
440.86	0.136
441.32	0.140
441.78	0.137
442.24	0.137
442.70	0.141
443.16	0.137
443.62	0.141
444.08	0.136
444.54	0.138
444.99	0.139
445.45	0.136
445.91	0.135
446.37	0.137
446.83	0.137
447.29	0.135
447.75	0.136
448.21	0.141
448.67	0.136
449.12	0.140
449.58	0.137
450.04	0.134
450.50	0.135
450.96	0.137
451.42	0.138
451.88	0.138
452.34	0.133
452.79	0.138
453.25	0.139
453.71	0.137
454.17	0.135
454.63	0.136
455.09	0.134
455.55	0.136
456.00	0.134
456.46	0.136
456.92	0.135
457.38	0.137
457.84	0.135
458.30	0.134
458.75	0.132
459.21	0.134
459.67	0.133
460.13	0.133
460.59	0.133
461.04	0.133
461.50	0.131
461.96	0.135
462.42	0.133
462.88	0.135
463.33	0.135
463.79	0.134
464.25	0.135
464.71	0.134
465.17	0.134
465.62	0.133
466.08	0.138
466.54	0.137
467.00	0.136
467.46	0.135
467.91	0.136
468.37	0.134
468.83	0.136
469.29	0.135
469.74	0.134
470.20	0.135
470.66	0.134
471.12	0.134
471.57	0.135
472.03	0.136
472.49	0.133
472.95	0.135
473.40	0.136
473.86	0.136
474.32	0.134
474.78	0.136
475.23	0.135
475.69	0.132
476.15	0.136
476.60	0.136
477.06	0.137
477.52	0.135
477.98	0.135
478.43	0.137
478.89	0.134
479.35	0.136
479.80	0.135
480.26	0.134
480.72	0.133
481.18	0.134
481.63	0.133
482.09	0.136
482.55	0.133
483.00	0.132
483.46	0.133
483.92	0.134
484.37	0.132
484.83	0.131
485.29	0.134
485.74	0.133
486.20	0.132
486.66	0.134
487.11	0.134
487.57	0.132
488.03	0.132
488.48	0.134
488.94	0.133
489.40	0.132
489.85	0.134
490.31	0.135
490.77	0.132
491.22	0.136
491.68	0.134
492.13	0.133
492.59	0.134
493.05	0.132
493.50	0.132
493.96	0.133
494.42	0.134
494.87	0.134
495.33	0.133
495.78	0.133
496.24	0.133
496.70	0.135
497.15	0.133
497.61	0.134
498.06	0.132
498.52	0.132
498.98	0.132
499.43	0.132
499.89	0.133
500.34	0.131
500.80	0.131
501.25	0.130
501.71	0.131
502.17	0.130
502.62	0.130
503.08	0.130
503.53	0.133
503.99	0.132
504.44	0.131
504.90	0.130
505.36	0.131
505.81	0.131
506.27	0.130
506.72	0.130
507.18	0.130
507.63	0.129
508.09	0.130
508.54	0.129
509.00	0.131
509.45	0.129
509.91	0.130
510.36	0.130
510.82	0.130
511.27	0.129
511.73	0.130
512.19	0.131
512.64	0.127
513.10	0.131
513.55	0.130
514.01	0.129
514.46	0.131
514.92	0.130
515.37	0.130
515.83	0.129
516.28	0.129
516.73	0.128
517.19	0.127
517.64	0.128
518.10	0.131
518.55	0.129
519.01	0.128
519.46	0.129
519.92	0.129
520.37	0.127
520.83	0.129
521.28	0.128
521.74	0.126
522.19	0.126
522.65	0.127
523.10	0.126
523.55	0.127
524.01	0.129
524.46	0.128
524.92	0.128
525.37	0.128
525.83	0.128
526.28	0.130
526.73	0.128
527.19	0.127
527.64	0.126
528.10	0.130
528.55	0.127
529.01	0.126
529.46	0.130
529.91	0.129
530.37	0.128
530.82	0.125
531.28	0.130
531.73	0.130
532.18	0.129
532.64	0.125
533.09	0.132
533.54	0.128
534.00	0.129
534.45	0.130
534.91	0.128
535.36	0.129
535.81	0.128
536.27	0.128
536.72	0.128
537.17	0.131
537.63	0.130
538.08	0.132
538.54	0.130
538.99	0.132
539.44	0.131
539.90	0.132
540.35	0.131
540.80	0.128
541.26	0.129
541.71	0.131
542.16	0.133
542.62	0.136
543.07	0.132
543.52	0.131
543.98	0.131
544.43	0.135
544.88	0.133
545.34	0.134
545.79	0.133
546.24	0.132
546.69	0.132
547.15	0.134
547.60	0.136
548.05	0.135
548.51	0.133
548.96	0.135
549.41	0.136
549.86	0.135
550.32	0.139
550.77	0.138
551.22	0.136
551.68	0.138
552.13	0.140
552.58	0.138
553.03	0.138
553.49	0.138
553.94	0.140
554.39	0.139
554.84	0.139
555.30	0.141
555.75	0.142
556.20	0.141
556.65	0.142
557.11	0.145
557.56	0.143
558.01	0.146
558.46	0.144
558.92	0.145
559.37	0.148
559.82	0.146
560.27	0.146
560.72	0.148
561.18	0.148
561.63	0.149
562.08	0.148
562.53	0.148
562.99	0.147
563.44	0.152
563.89	0.150
564.34	0.150
564.79	0.153
565.25	0.153
565.70	0.155
566.15	0.152
566.60	0.155
567.05	0.155
567.50	0.157
567.96	0.157
568.41	0.159
568.86	0.158
569.31	0.157
569.76	0.158
570.21	0.159
570.67	0.160
571.12	0.161
571.57	0.161
572.02	0.164
572.47	0.164
572.92	0.162
573.37	0.168
573.83	0.167
574.28	0.166
574.73	0.166
575.18	0.167
575.63	0.166
576.08	0.168
576.53	0.169
576.98	0.170
577.44	0.172
577.89	0.172
578.34	0.173
578.79	0.174
579.24	0.175
579.69	0.177
580.14	0.178
580.59	0.180
581.04	0.179
581.49	0.181
581.95	0.183
582.40	0.184
582.85	0.186
583.30	0.185
583.75	0.188
584.20	0.189
584.65	0.190
585.10	0.191
585.55	0.192
586.00	0.194
586.45	0.196
586.90	0.197
587.35	0.198
587.80	0.199
588.25	0.203
588.71	0.203
589.16	0.205
589.61	0.204
590.06	0.208
590.51	0.210
590.96	0.211
591.41	0.215
591.86	0.214
592.31	0.215
592.76	0.218
593.21	0.219
593.66	0.221
594.11	0.223
594.56	0.226
595.01	0.228
595.46	0.228
595.91	0.230
596.36	0.232
596.81	0.234
597.26	0.236
597.71	0.237
598.16	0.241
598.61	0.242
599.06	0.244
599.51	0.244
599.96	0.246
600.41	0.250
600.86	0.252
601.31	0.254
601.76	0.254
602.21	0.260
602.65	0.260
603.10	0.260
603.55	0.261
604.00	0.265
604.45	0.266
604.90	0.267
605.35	0.271
605.80	0.270
606.25	0.269
606.70	0.274
607.15	0.276
607.60	0.279
608.05	0.279
608.50	0.279
608.95	0.281
609.39	0.284
609.84	0.282
610.29	0.286
610.74	0.286
611.19	0.285
611.64	0.288
612.09	0.291
612.54	0.291
612.99	0.291
613.44	0.293
613.88	0.292
614.33	0.292
614.78	0.295
615.23	0.294
615.68	0.295
616.13	0.296
616.58	0.297
617.03	0.299
617.47	0.300
617.92	0.299
618.37	0.301
618.82	0.301
619.27	0.300
619.72	0.304
620.17	0.303
620.61	0.303
621.06	0.303
621.51	0.303
621.96	0.304
622.41	0.306
622.86	0.304
623.30	0.307
623.75	0.307
624.20	0.308
624.65	0.308
625.10	0.310
625.54	0.309
625.99	0.310
626.44	0.312
626.89	0.313
627.34	0.313
627.78	0.315
628.23	0.317
628.68	0.317
629.13	0.317
629.58	0.319
630.02	0.323
630.47	0.324
630.92	0.322
631.37	0.325
631.81	0.327
632.26	0.327
632.71	0.329
633.16	0.333
633.61	0.333
634.05	0.336
634.50	0.338
634.95	0.339
635.40	0.342
635.84	0.344
636.29	0.346
636.74	0.351
637.18	0.349
637.63	0.353
638.08	0.355
638.53	0.356
638.97	0.360
639.42	0.364
639.87	0.365
640.32	0.367
640.76	0.369
641.21	0.375
641.66	0.375
642.10	0.379
642.55	0.382
643.00	0.385
643.44	0.387
643.89	0.390
644.34	0.395
644.79	0.398
645.23	0.399
645.68	0.404
646.13	0.407
646.57	0.409
647.02	0.412
647.47	0.416
647.91	0.419
648.36	0.418
648.81	0.424
649.25	0.425
649.70	0.429
650.15	0.432
650.59	0.434
651.04	0.440
651.48	0.441
651.93	0.442
652.38	0.448
652.82	0.450
653.27	0.449
653.72	0.454
654.16	0.458
654.61	0.458
655.06	0.461
655.50	0.463
655.95	0.462
656.39	0.461
656.84	0.473
657.29	0.478
657.73	0.472
658.18	0.472
658.62	0.478
659.07	0.480
659.52	0.479
659.96	0.483
660.41	0.487
660.85	0.485
661.30	0.488
661.74	0.487
662.19	0.490
662.64	0.487
663.08	0.486
663.53	0.492
663.97	0.491
664.42	0.490
664.86	0.490
665.31	0.492
665.75	0.490
666.20	0.489
666.65	0.488
667.09	0.487
667.54	0.485
667.98	0.485
668.43	0.481
668.87	0.483
669.32	0.476
669.76	0.472
670.21	0.474
670.65	0.469
671.10	0.462
671.54	0.461
671.99	0.460
672.43	0.451
672.88	0.447
673.32	0.442
673.77	0.436
674.21	0.432
674.66	0.426
675.10	0.419
675.55	0.411
675.99	0.404
676.44	0.399
676.88	0.392
677.33	0.384
677.77	0.376
678.22	0.369
678.66	0.361
679.11	0.355
679.55	0.346
679.99	0.340
680.44	0.332
680.88	0.322
681.33	0.316
681.77	0.308
682.22	0.297
682.66	0.293
683.11	0.284
683.55	0.280
683.99	0.272
684.44	0.265
684.88	0.257
685.33	0.252
685.77	0.242
686.21	0.236
686.66	0.231
687.10	0.223
687.55	0.220
687.99	0.213
688.44	0.208
688.88	0.201
689.32	0.195
689.77	0.191
690.21	0.185
690.65	0.181
691.10	0.178
691.54	0.173
691.99	0.168
692.43	0.167
692.87	0.163
693.32	0.158
693.76	0.153
694.20	0.153
694.65	0.149
695.09	0.144
695.53	0.141
695.98	0.141
696.42	0.139
696.86	0.134
697.31	0.131
697.75	0.130
698.19	0.130
698.64	0.124
699.08	0.124
699.52	0.121
699.97	0.120
700.41	0.119
700.85	0.116
701.30	0.111
701.74	0.115
702.18	0.112
702.63	0.108
703.07	0.109
703.51	0.110
703.96	0.108
704.40	0.106
704.84	0.106
705.28	0.102
705.73	0.105
706.17	0.101
706.61	0.101
707.06	0.102
707.50	0.100
707.94	0.101
708.38	0.099
708.83	0.099
709.27	0.099
709.71	0.097
710.15	0.096
710.60	0.097
711.04	0.093
711.48	0.095
711.92	0.094
712.37	0.092
712.81	0.093
713.25	0.095
713.69	0.092
714.13	0.092
714.58	0.093
715.02	0.091
715.46	0.091
715.90	0.093
716.35	0.091
716.79	0.093
717.23	0.092
717.67	0.091
718.11	0.089
718.56	0.090
719.00	0.092
719.44	0.090
719.88	0.092
720.32	0.092
720.76	0.090
721.21	0.094
721.65	0.090
722.09	0.090
722.53	0.091
722.97	0.091
723.41	0.092
723.86	0.090
724.30	0.089
724.74	0.092
725.18	0.089
725.62	0.090
726.06	0.091
726.50	0.091
726.95	0.092
727.39	0.092
727.83	0.089
728.27	0.094
728.71	0.092
729.15	0.091
729.59	0.089
730.03	0.090
730.48	0.091
730.92	0.092
731.36	0.092
731.80	0.090
732.24	0.093
732.68	0.093
733.12	0.093
733.56	0.091
734.00	0.094
734.44	0.091
734.89	0.094
735.33	0.091
735.77	0.093
736.21	0.094
736.65	0.091
737.09	0.095
737.53	0.094
737.97	0.093
738.41	0.095
738.85	0.093
739.29	0.091
739.73	0.093
740.17	0.094
740.61	0.090
741.05	0.094
741.49	0.093
741.93	0.095
742.37	0.093
742.81	0.092
743.26	0.093
743.70	0.093
744.14	0.092
744.58	0.093
745.02	0.092
745.46	0.093
745.90	0.094
746.34	0.094
746.78	0.094
747.22	0.093
747.66	0.093
748.10	0.091
748.54	0.093
748.98	0.093
749.42	0.094
749.86	0.093
750.29	0.091
750.73	0.095
751.17	0.092
751.61	0.093
752.05	0.090
752.49	0.092
752.93	0.093
753.37	0.092
753.81	0.093
754.25	0.091
754.69	0.093
755.13	0.094
755.57	0.089
756.01	0.092
756.45	0.089
756.89	0.090
757.33	0.092
757.77	0.092
758.21	0.091
758.64	0.091
759.08	0.091
759.52	0.091
759.96	0.092
760.40	0.092
760.84	0.091
761.28	0.088
761.72	0.091
762.16	0.089
762.60	0.090
763.03	0.090
763.47	0.090
763.91	0.087
764.35	0.089
764.79	0.091
765.23	0.092
765.67	0.090
766.11	0.091
766.54	0.089
766.98	0.089
767.42	0.089
767.86	0.092
768.30	0.089
768.74	0.088
769.17	0.090
769.61	0.090
770.05	0.090
770.49	0.092
770.93	0.090
771.37	0.091
771.80	0.090
772.24	0.088
772.68	0.089
773.12	0.089
773.56	0.090
774.00	0.091
774.43	0.089
774.87	0.089
775.31	0.090
775.75	0.087
776.19	0.090
776.62	0.091
777.06	0.089
777.50	0.090
777.94	0.087
778.37	0.088
778.81	0.090
779.25	0.086
779.69	0.089
780.13	0.092
780.56	0.085
781.00	0.090
781.44	0.088
781.88	0.087
782.31	0.087
782.75	0.088
783.19	0.087
783.63	0.089
784.06	0.089
784.50	0.090
784.94	0.090
785.37	0.086
785.81	0.088
786.25	0.091
786.69	0.089
787.12	0.091
787.56	0.088
788.00	0.090
788.43	0.091
788.87	0.091
789.31	0.089
789.75	0.087
790.18	0.088
790.62	0.088
791.06	0.090
791.49	0.089
791.93	0.087
792.37	0.087
792.80	0.090
793.24	0.087
793.68	0.090
794.11	0.091
794.55	0.087
794.99	0.086
795.42	0.093
795.86	0.095
796.30	0.091
796.73	0.087
797.17	0.086
797.61	0.085
798.04	0.090
798.48	0.088
798.91	0.092
799.35	0.090
799.79	0.089
800.22	0.090
800.66	0.087
801.10	0.089
801.53	0.093
801.97	0.089
802.40	0.086
802.84	0.087
803.28	0.088
803.71	0.087
804.15	0.091
804.58	0.090
805.02	0.088
805.46	0.084
805.89	0.089
806.33	0.091
806.76	0.088
807.20	0.090
807.63	0.090
808.07	0.091
808.51	0.090
808.94	0.091
809.38	0.091
809.81	0.092
810.25	0.090
810.68	0.090
811.12	0.087
811.55	0.087
811.99	0.087
812.42	0.087
812.86	0.091
813.29	0.087
813.73	0.089
814.17	0.085
814.60	0.086
815.04	0.085
815.47	0.087
815.91	0.086
816.34	0.091
816.78	0.090
817.21	0.092
817.65	0.089
818.08	0.090
818.52	0.090
818.95	0.090
819.39	0.092
819.82	0.089
820.25	0.090
820.69	0.092
821.12	0.089
821.56	0.088
821.99	0.092
822.43	0.089
822.86	0.090
823.30	0.088
823.73	0.091
824.17	0.092
824.60	0.085
825.04	0.090
825.47	0.087
825.90	0.087
826.34	0.092
826.77	0.090
827.21	0.090
827.64	0.087
828.08	0.094
828.51	0.094
828.94	0.092
829.38	0.092
829.81	0.095
830.25	0.092
830.68	0.090
831.11	0.094
831.55	0.094
831.98	0.094
832.42	0.094
832.85	0.098
833.28	0.094
833.72	0.098
834.15	0.102
834.58	0.093
835.02	0.091
835.45	0.096
835.88	0.100
836.32	0.099
836.75	0.095
837.19	0.096
837.62	0.099
838.05	0.096
838.49	0.094
838.92	0.099
839.35	0.096
839.79	0.097
840.22	0.096
840.65	0.094
841.09	0.095
841.52	0.096
841.95	0.097
842.39	0.098
842.82	0.099
843.25	0.096
843.68	0.101
844.12	0.101
844.55	0.093
844.98	0.100
845.42	0.096
845.85	0.095
846.28	0.098
846.71	0.094
847.15	0.097
847.58	0.101
848.01	0.097
848.45	0.098
848.88	0.092
849.31	0.095
849.74	0.100
850.18	0.096
850.61	0.103
851.04	0.101
851.47	0.098
851.91	0.097
852.34	0.098
852.77	0.096
853.20	0.104
853.64	0.097
854.07	0.098
854.50	0.098
854.93	0.093
855.36	0.096
855.80	0.100
856.23	0.103
856.66	0.098
857.09	0.107
857.52	0.103
857.96	0.101
858.39	0.101
858.82	0.099
859.25	0.101
859.68	0.103
860.12	0.097
860.55	0.098
860.98	0.105
861.41	0.102
861.84	0.102
862.27	0.103
862.71	0.107
863.14	0.102
863.57	0.104
864.00	0.100
864.43	0.100
864.86	0.107
865.30	0.103
865.73	0.104
866.16	0.103
866.59	0.108
867.02	0.101
867.45	0.100
867.88	0.105
868.31	0.105
868.75	0.105
869.18	0.103
869.61	0.106
870.04	0.101
870.47	0.103
870.90	0.105
871.33	0.106
871.76	0.104
872.19	0.094
872.62	0.106
873.06	0.111
873.49	0.105
873.92	0.102
874.35	0.110
874.78	0.111
875.21	0.105
875.64	0.110
876.07	0.110
876.50	0.104
876.93	0.104
877.36	0.111
877.79	0.107
878.22	0.103
878.65	0.103
879.08	0.110
879.51	0.103
879.94	0.103
880.37	0.105
880.80	0.107
881.23	0.107
881.67	0.108
882.10	0.111
882.53	0.109
882.96	0.108
883.39	0.110
883.82	0.112
884.25	0.111
884.68	0.105
885.11	0.110
885.54	0.113
885.97	0.105
886.39	0.102
886.82	0.106
887.25	0.108
887.68	0.111
888.11	0.107
888.54	0.109
888.97	0.106
889.40	0.112
889.83	0.114
890.26	0.113
890.69	0.105
891.12	0.108
891.55	0.107
891.98	0.110
892.41	0.110
892.84	0.114
893.27	0.113
893.70	0.106
894.13	0.112
894.56	0.112
894.98	0.111
895.41	0.109
895.84	0.117
896.27	0.113
896.70	0.114
897.13	0.103
897.56	0.108
897.99	0.110
898.42	0.112
898.85	0.111
899.27	0.115
899.70	0.114
900.13	0.110
900.56	0.119
900.99	0.110
901.42	0.109
901.85	0.112
902.28	0.117
902.70	0.114
903.13	0.112
903.56	0.113
903.99	0.111
904.42	0.115
904.85	0.114
905.27	0.114
905.70	0.113
906.13	0.111
906.56	0.112
906.99	0.113
907.42	0.113
907.84	0.111
908.27	0.116
908.70	0.112
909.13	0.111
909.56	0.109
909.98	0.115
910.41	0.111
910.84	0.109
911.27	0.111
911.70	0.113
912.12	0.108
912.55	0.113
912.98	0.107
913.41	0.114
913.84	0.107
914.26	0.109
914.69	0.107
915.12	0.111
915.55	0.108
915.97	0.110
916.40	0.112
916.83	0.109
917.26	0.112
917.68	0.114
918.11	0.114
918.54	0.111
918.97	0.111
919.39	0.114
919.82	0.116
920.25	0.114
920.67	0.112
921.10	0.114
921.53	0.109
921.96	0.112
922.38	0.117
922.81	0.116
923.24	0.115
923.66	0.116
924.09	0.119
924.52	0.116
924.94	0.119
925.37	0.119
925.80	0.120
926.22	0.118
926.65	0.119
927.08	0.121
927.50	0.125
927.93	0.125
928.36	0.125
928.78	0.128
929.21	0.125
929.64	0.126
930.06	0.129
930.49	0.130
930.92	0.125
931.34	0.130
931.77	0.129
932.20	0.127
932.62	0.131
933.05	0.126
933.47	0.131
933.90	0.134
934.33	0.137
934.75	0.134
935.18	0.138
935.61	0.136
936.03	0.139
936.46	0.140
936.88	0.145
937.31	0.144
937.73	0.150
938.16	0.150
938.59	0.149
939.01	0.152
939.44	0.158
939.86	0.154
940.29	0.156
940.71	0.166
941.14	0.167
941.57	0.158
941.99	0.170
942.42	0.163
942.84	0.168
943.27	0.170
943.69	0.179
944.12	0.175
944.54	0.174
944.97	0.176
945.39	0.184
945.82	0.187
946.24	0.181
946.67	0.185
947.09	0.191
947.52	0.187
947.94	0.192
948.37	0.197
948.79	0.200
949.22	0.198
949.64	0.198
950.07	0.198
950.49	0.203
950.92	0.207
951.34	0.209
951.77	0.219
952.19	0.210
952.62	0.219
953.04	0.222
953.47	0.226
953.89	0.220
954.32	0.223
954.74	0.236
955.17	0.229
955.59	0.234
956.01	0.238
956.44	0.244
956.86	0.235
957.29	0.248
957.71	0.255
958.14	0.245
958.56	0.254
958.98	0.261
959.41	0.257
959.83	0.253
960.26	0.259
960.68	0.264
961.10	0.266
961.53	0.259
961.95	0.273
962.38	0.276
962.80	0.269
963.22	0.269
963.65	0.278
964.07	0.269
964.50	0.265
964.92	0.271
965.34	0.276
965.77	0.273
966.19	0.271
966.61	0.275
967.04	0.278
967.46	0.276
967.88	0.272
968.31	0.281
968.73	0.269
969.15	0.277
969.58	0.277
970.00	0.280
970.42	0.278
970.85	0.276
971.27	0.280
971.69	0.280
972.12	0.275
972.54	0.279
972.96	0.290
973.39	0.281
973.81	0.281
974.23	0.283
974.65	0.283
975.08	0.282
975.50	0.282
975.92	0.283
976.35	0.282
976.77	0.285
977.19	0.282
977.61	0.285
978.04	0.282
978.46	0.278
978.88	0.283
979.30	0.284
979.73	0.278
980.15	0.286
980.57	0.280
980.99	0.280
981.42	0.278
981.84	0.285
982.26	0.291
982.68	0.281
983.11	0.278
983.53	0.287
983.95	0.283
984.37	0.273
984.79	0.280
985.22	0.275
985.64	0.282
986.06	0.274
986.48	0.284
986.90	0.281
987.33	0.277
987.75	0.281
988.17	0.281
988.59	0.271
989.01	0.264
989.43	0.270
989.86	0.278
990.28	0.262
990.70	0.268
991.12	0.276
991.54	0.275
991.96	0.271
992.39	0.264
992.81	0.275
993.23	0.260
993.65	0.267
994.07	0.272
994.49	0.268
994.91	0.259
995.34	0.260
995.76	0.270
996.18	0.266
996.60	0.256
997.02	0.262
997.44	0.266
997.86	0.255
998.28	0.252
998.70	0.260
999.12	0.257
999.55	0.256
999.97	0.257
1000.39	0.259
1000.81	0.255
1001.23	0.246
1001.65	0.256
1002.07	0.250
1002.49	0.254
1002.91	0.251
1003.33	0.253
1003.75	0.249
1004.17	0.247
1004.59	0.254
1005.01	0.251
1005.43	0.238
1005.85	0.244
1006.28	0.248
1006.70	0.248
1007.12	0.245
1007.54	0.242
1007.96	0.251
1008.38	0.238
1008.80	0.242
1009.22	0.240
1009.64	0.249
1010.06	0.237
1010.48	0.235
1010.90	0.241
1011.32	0.239
1011.74	0.234
1012.16	0.238
1012.58	0.243
1013.00	0.219
1013.42	0.220
1013.84	0.224
1014.26	0.225
1014.67	0.231
1015.09	0.228
1015.51	0.240
1015.93	0.232
1016.35	0.216
1016.77	0.232
1017.19	0.227
1017.61	0.211
1018.03	0.212
1018.45	0.228
1018.87	0.213
1019.29	0.216
1019.71	0.205
1020.13	0.219
1020.55	0.221
1020.97	0.213
1021.38	0.220
1021.80	0.212
1022.22	0.211
1022.64	0.210
1023.06	0.224
1023.48	0.210
1023.90	0.207
1024.32	0.206
1024.74	0.211
1025.15	0.203
1025.57	0.204
1025.99	0.218
1026.41	0.202
1026.83	0.208
1027.25	0.215
1027.67	0.211
1028.08	0.195
1028.50	0.197
1028.92	0.205
1029.34	0.195
1029.76	0.209
1030.18	0.205
1030.60	0.213
1031.01	0.187
1031.43	0.197
1031.85	0.207
1032.27	0.204
1032.69	0.175
1033.10	0.195
1033.52	0.205
1033.94	0.191
1034.36	0.204
1034.78	0.204
1035.19	0.195
1035.61	0.187
1036.03	0.170
1036.45	0.197
1036.87	0.198
1037.28	0.179
1037.70	0.192
1038.12	0.201
1038.54	0.181
1038.95	0.192
1039.37	0.191
1039.79	0.187
1040.21	0.176
1040.62	0.159
1041.04	0.203
1041.46	0.185
1041.88	0.194
1042.29	0.178
1042.71	0.205
1043.13	0.171
1043.55	0.178
1043.96	0.204
1044.38	0.175
1044.80	0.191
1045.21	0.187
1045.63	0.211
1046.05	0.184
1046.47	0.177
1046.88	0.205
1047.30	0.183
1047.72	0.186
1048.13	0.162
1048.55	0.209
1048.97	0.194
1049.38	0.177
1049.80	0.165
1050.22	0.184
1050.63	0.168
1051.05	0.150
1051.47	0.205
1051.88	0.174
1052.30	0.180
1052.72	0.181
1053.13	0.198
1053.55	0.162
1053.97	0.186
1054.38	0.197
1054.80	0.227
1055.21	0.200
1055.63	0.164
1056.05	0.202
1056.46	0.203
1056.88	0.195
1057.29	0.195
1057.71	0.235
1058.13	0.189
1058.54	0.202
1058.96	0.213
1059.37	0.206
1059.79	0.204
1060.21	0.197
1060.62	0.240
1061.04	0.215
1061.45	0.221
1061.87	0.264
1062.28	0.256
1062.70	0.216
1063.12	0.245
1063.53	0.282
1063.95	0.247
1064.36	0.237
1064.78	0.262
1065.19	0.309
1065.61	0.288
1066.02	0.196
1066.44	0.281
1066.85	0.330
1067.27	0.323
1067.68	0.230
1068.10	0.359
1068.51	0.220
1068.93	0.306
1069.35	0.403
1069.76	0.357
1070.17	0.305
1070.59	0.260
1071.00	0.457
1071.42	0.302
1071.83	0.386
1072.25	0.498
1072.66	0.778
1073.08	0.498
1073.49	0.518
1073.91	0.439
1074.32	0.464
1074.74	0.640
1075.15	0.454
1075.57	0.568
1075.98	0.462
1076.40	0.607
1076.81	0.659
1077.22	0.690
1077.64	0.893
1078.05	0.913
1078.47	-0.000
1078.88	1.064
1079.30	1.251
1079.71	-0.000
1080.12	-0.000
1080.54	1.143
1080.95	-0.000
1081.37	-0.000
1081.78	-0.000
1082.19	-0.000
1082.61	-0.000
1083.02	-0.000
1083.44	-0.000
1083.85	-0.000
1084.26	-0.000
1084.68	-0.000
1085.09	-0.000
1085.50	-0.000
1085.92	-0.000
1086.33	-0.000
1086.74	-0.000
1087.16	-0.000
1087.57	-0.000
1087.98	-0.000
1088.40	-0.000
1088.81	-0.000
1089.22	-0.000
1089.64	2.332
1090.05	-0.000
1090.46	-0.000
1090.88	-0.000
1091.29	-0.000
1091.70	-0.000
1092.12	-0.000
1092.53	-0.000
1092.94	-0.000
1093.36	-0.000
1093.77	-0.000
1094.18	-0.000
1094.59	-0.000
1095.01	-0.000
1095.42	-0.000
1095.83	-0.000
1096.25	-0.000
1096.66	-0.000
1097.07	-0.000
1097.48	-0.000
1097.90	-0.000
1098.31	-0.000
1098.72	-0.000
1099.13	-0.000
>>>>>End Processed Spectral Data<<<<<
