SpectraSuite Data File
++++++++++++++++++++++++++++++++++++
Date: Wed May 04 12:54:34 CEST 2016
User: spectrasuite
Dark Spectrum Present: Yes
Reference Spectrum Present: Yes
Number of Sampled Component Spectra: 1
Spectrometers: HR+C0708
Integration Time (usec): 1000 (HR+C0708)
Spectra Averaged: 10 (HR+C0708)
Boxcar Smoothing: 0 (HR+C0708)
Correct for Electrical Dark: No (HR+C0708)
Strobe/Lamp Enabled: No (HR+C0708)
Correct for Detector Non-linearity: No (HR+C0708)
Correct for Stray Light: No (HR+C0708)
Number of Pixels in Processed Spectrum: 2048
>>>>>Begin Processed Spectral Data<<<<<
188.76	0.346
189.23	1.447
189.70	0.233
190.17	0.137
190.64	-0.000
191.12	0.392
191.59	-0.000
192.06	0.656
192.53	0.630
193.01	1.330
193.48	0.238
193.95	-0.000
194.42	0.304
194.90	0.667
195.37	0.295
195.84	-0.000
196.31	0.445
196.78	0.629
197.26	1.262
197.73	0.533
198.20	-0.064
198.67	-0.000
199.14	1.072
199.62	1.651
200.09	1.544
200.56	1.040
201.03	0.577
201.50	0.503
201.97	0.508
202.45	0.668
202.92	0.721
203.39	0.496
203.86	0.804
204.33	0.510
204.80	0.453
205.28	0.558
205.75	0.637
206.22	0.604
206.69	0.457
207.16	0.501
207.63	0.475
208.11	1.320
208.58	0.456
209.05	0.822
209.52	0.522
209.99	0.413
210.46	0.485
210.93	0.467
211.41	0.537
211.88	0.720
212.35	0.425
212.82	0.693
213.29	0.431
213.76	0.696
214.23	0.837
214.70	0.710
215.18	0.432
215.65	0.374
216.12	0.553
216.59	0.511
217.06	0.431
217.53	0.623
218.00	0.650
218.47	0.568
218.94	0.570
219.41	0.391
219.89	0.458
220.36	0.472
220.83	0.688
221.30	1.197
221.77	0.747
222.24	0.596
222.71	0.645
223.18	0.758
223.65	0.495
224.12	0.576
224.59	0.688
225.06	0.764
225.54	0.618
226.01	0.954
226.48	1.007
226.95	1.233
227.42	1.062
227.89	1.212
228.36	1.063
228.83	0.959
229.30	1.076
229.77	1.257
230.24	1.229
230.71	1.296
231.18	1.573
231.65	1.849
232.12	1.532
232.59	1.718
233.06	1.663
233.53	2.224
234.00	1.599
234.47	1.801
234.94	2.067
235.41	1.790
235.88	1.861
236.35	2.172
236.82	2.069
237.29	1.813
237.76	2.296
238.23	1.969
238.70	2.295
239.17	2.023
239.64	2.515
240.11	2.531
240.58	1.987
241.05	2.248
241.52	2.441
241.99	2.204
242.46	2.173
242.93	2.313
243.40	2.759
243.87	2.336
244.34	2.178
244.81	2.596
245.28	2.320
245.75	2.298
246.22	2.490
246.69	2.712
247.16	2.403
247.63	2.430
248.10	2.415
248.57	3.143
249.04	2.576
249.51	2.381
249.98	3.427
250.45	2.743
250.92	2.504
251.39	2.656
251.85	2.667
252.32	2.595
252.79	2.554
253.26	2.654
253.73	2.639
254.20	2.386
254.67	2.444
255.14	3.121
255.61	2.865
256.08	2.453
256.55	2.579
257.02	2.817
257.49	2.709
257.95	2.739
258.42	2.664
258.89	3.112
259.36	2.861
259.83	2.904
260.30	2.897
260.77	2.966
261.24	2.545
261.71	2.778
262.17	2.788
262.64	2.771
263.11	2.677
263.58	2.867
264.05	2.718
264.52	2.687
264.99	2.713
265.46	2.816
265.92	2.664
266.39	2.625
266.86	2.872
267.33	2.892
267.80	2.825
268.27	2.848
268.74	3.347
269.20	2.632
269.67	2.819
270.14	2.877
270.61	2.770
271.08	2.617
271.55	2.587
272.01	2.811
272.48	2.611
272.95	2.630
273.42	2.733
273.89	2.711
274.36	2.623
274.82	2.487
275.29	2.869
275.76	2.690
276.23	2.689
276.70	2.568
277.16	3.117
277.63	2.735
278.10	2.519
278.57	2.588
279.04	2.642
279.50	2.749
279.97	2.722
280.44	2.794
280.91	2.701
281.38	2.691
281.84	2.826
282.31	2.723
282.78	2.596
283.25	2.612
283.72	2.870
284.18	2.746
284.65	2.696
285.12	2.715
285.59	2.537
286.05	2.647
286.52	2.516
286.99	2.671
287.46	2.696
287.92	2.607
288.39	2.594
288.86	2.721
289.33	2.792
289.79	2.546
290.26	2.562
290.73	2.592
291.20	2.439
291.66	2.440
292.13	2.539
292.60	2.746
293.07	2.473
293.53	2.509
294.00	2.614
294.47	2.615
294.93	2.602
295.40	2.635
295.87	2.694
296.34	2.598
296.80	2.517
297.27	2.652
297.74	2.733
298.20	2.549
298.67	2.508
299.14	2.541
299.60	2.503
300.07	2.529
300.54	2.619
301.01	2.552
301.47	2.487
301.94	2.457
302.41	2.521
302.87	2.582
303.34	2.524
303.81	2.396
304.27	2.452
304.74	2.429
305.21	2.461
305.67	2.630
306.14	2.472
306.61	2.387
307.07	2.474
307.54	2.540
308.01	2.510
308.47	2.379
308.94	2.467
309.40	2.462
309.87	2.428
310.34	2.400
310.80	2.434
311.27	2.397
311.74	2.325
312.20	2.446
312.67	2.623
313.13	2.463
313.60	2.351
314.07	2.374
314.53	2.428
315.00	2.267
315.47	2.363
315.93	2.431
316.40	2.416
316.86	2.371
317.33	2.376
317.80	2.467
318.26	2.291
318.73	2.365
319.19	2.374
319.66	2.386
320.13	2.355
320.59	2.319
321.06	2.345
321.52	2.288
321.99	2.233
322.45	2.322
322.92	2.303
323.39	2.319
323.85	2.298
324.32	2.367
324.78	2.179
325.25	2.234
325.71	2.198
326.18	2.246
326.64	2.256
327.11	2.138
327.58	2.160
328.04	2.166
328.51	2.094
328.97	2.184
329.44	2.237
329.90	2.192
330.37	2.134
330.83	2.177
331.30	2.188
331.76	2.107
332.23	2.171
332.69	2.198
333.16	2.217
333.62	2.114
334.09	2.159
334.56	2.158
335.02	2.115
335.49	2.125
335.95	2.162
336.42	2.130
336.88	2.064
337.35	2.048
337.81	2.102
338.28	2.138
338.74	2.055
339.20	2.100
339.67	2.164
340.13	2.088
340.60	2.086
341.06	2.102
341.53	2.104
341.99	2.083
342.46	2.056
342.92	2.091
343.39	2.061
343.85	2.025
344.32	2.048
344.78	2.076
345.25	1.994
345.71	1.988
346.17	2.009
346.64	1.969
347.10	1.982
347.57	1.941
348.03	1.941
348.50	1.892
348.96	1.890
349.43	1.933
349.89	1.864
350.35	1.831
350.82	1.759
351.28	1.819
351.75	1.684
352.21	1.648
352.67	1.649
353.14	1.678
353.60	1.617
354.07	1.586
354.53	1.581
355.00	1.529
355.46	1.482
355.92	1.441
356.39	1.444
356.85	1.361
357.31	1.315
357.78	1.275
358.24	1.222
358.71	1.145
359.17	1.103
359.63	1.042
360.10	0.979
360.56	0.926
361.03	0.859
361.49	0.805
361.95	0.743
362.42	0.689
362.88	0.643
363.34	0.595
363.81	0.548
364.27	0.506
364.73	0.473
365.20	0.437
365.66	0.406
366.12	0.382
366.59	0.358
367.05	0.337
367.51	0.319
367.98	0.302
368.44	0.292
368.90	0.276
369.37	0.267
369.83	0.260
370.29	0.247
370.76	0.239
371.22	0.235
371.68	0.229
372.15	0.225
372.61	0.219
373.07	0.216
373.54	0.209
374.00	0.211
374.46	0.207
374.92	0.207
375.39	0.203
375.85	0.201
376.31	0.200
376.78	0.196
377.24	0.191
377.70	0.196
378.16	0.192
378.63	0.191
379.09	0.188
379.55	0.187
380.01	0.188
380.48	0.184
380.94	0.184
381.40	0.182
381.87	0.182
382.33	0.180
382.79	0.177
383.25	0.178
383.72	0.180
384.18	0.175
384.64	0.175
385.10	0.173
385.56	0.171
386.03	0.173
386.49	0.169
386.95	0.171
387.41	0.171
387.88	0.165
388.34	0.166
388.80	0.167
389.26	0.165
389.72	0.164
390.19	0.162
390.65	0.162
391.11	0.160
391.57	0.162
392.04	0.160
392.50	0.161
392.96	0.159
393.42	0.156
393.88	0.160
394.34	0.155
394.81	0.158
395.27	0.153
395.73	0.151
396.19	0.153
396.65	0.153
397.12	0.151
397.58	0.153
398.04	0.151
398.50	0.153
398.96	0.151
399.42	0.150
399.89	0.150
400.35	0.150
400.81	0.146
401.27	0.147
401.73	0.146
402.19	0.147
402.65	0.144
403.12	0.143
403.58	0.145
404.04	0.141
404.50	0.142
404.96	0.141
405.42	0.140
405.88	0.138
406.34	0.140
406.81	0.140
407.27	0.138
407.73	0.135
408.19	0.138
408.65	0.136
409.11	0.136
409.57	0.136
410.03	0.138
410.49	0.136
410.96	0.134
411.42	0.135
411.88	0.131
412.34	0.130
412.80	0.133
413.26	0.132
413.72	0.130
414.18	0.130
414.64	0.130
415.10	0.130
415.56	0.129
416.02	0.128
416.48	0.127
416.95	0.130
417.41	0.125
417.87	0.126
418.33	0.125
418.79	0.125
419.25	0.128
419.71	0.127
420.17	0.125
420.63	0.122
421.09	0.123
421.55	0.122
422.01	0.123
422.47	0.124
422.93	0.123
423.39	0.123
423.85	0.120
424.31	0.121
424.77	0.123
425.23	0.120
425.69	0.122
426.15	0.122
426.61	0.119
427.07	0.118
427.53	0.118
427.99	0.120
428.45	0.120
428.91	0.119
429.37	0.119
429.83	0.116
430.29	0.117
430.75	0.118
431.21	0.116
431.67	0.118
432.13	0.115
432.59	0.112
433.05	0.117
433.51	0.114
433.97	0.110
434.43	0.116
434.89	0.116
435.35	0.115
435.81	0.117
436.27	0.116
436.73	0.110
437.19	0.113
437.65	0.112
438.11	0.110
438.57	0.112
439.03	0.111
439.48	0.112
439.94	0.112
440.40	0.109
440.86	0.110
441.32	0.115
441.78	0.111
442.24	0.109
442.70	0.112
443.16	0.112
443.62	0.114
444.08	0.107
444.54	0.110
444.99	0.109
445.45	0.107
445.91	0.109
446.37	0.109
446.83	0.109
447.29	0.110
447.75	0.106
448.21	0.111
448.67	0.110
449.12	0.108
449.58	0.107
450.04	0.110
450.50	0.108
450.96	0.103
451.42	0.108
451.88	0.107
452.34	0.102
452.79	0.105
453.25	0.106
453.71	0.105
454.17	0.104
454.63	0.104
455.09	0.104
455.55	0.105
456.00	0.103
456.46	0.102
456.92	0.105
457.38	0.105
457.84	0.105
458.30	0.105
458.75	0.104
459.21	0.104
459.67	0.103
460.13	0.104
460.59	0.102
461.04	0.103
461.50	0.103
461.96	0.104
462.42	0.101
462.88	0.104
463.33	0.099
463.79	0.101
464.25	0.099
464.71	0.099
465.17	0.100
465.62	0.098
466.08	0.099
466.54	0.101
467.00	0.099
467.46	0.098
467.91	0.100
468.37	0.097
468.83	0.098
469.29	0.097
469.74	0.097
470.20	0.099
470.66	0.099
471.12	0.100
471.57	0.097
472.03	0.097
472.49	0.100
472.95	0.100
473.40	0.097
473.86	0.096
474.32	0.095
474.78	0.097
475.23	0.097
475.69	0.096
476.15	0.096
476.60	0.097
477.06	0.096
477.52	0.096
477.98	0.094
478.43	0.098
478.89	0.096
479.35	0.096
479.80	0.096
480.26	0.092
480.72	0.095
481.18	0.094
481.63	0.095
482.09	0.094
482.55	0.093
483.00	0.093
483.46	0.095
483.92	0.094
484.37	0.093
484.83	0.092
485.29	0.094
485.74	0.093
486.20	0.092
486.66	0.093
487.11	0.092
487.57	0.092
488.03	0.091
488.48	0.092
488.94	0.091
489.40	0.089
489.85	0.092
490.31	0.091
490.77	0.090
491.22	0.094
491.68	0.091
492.13	0.091
492.59	0.091
493.05	0.090
493.50	0.089
493.96	0.090
494.42	0.090
494.87	0.091
495.33	0.089
495.78	0.089
496.24	0.091
496.70	0.091
497.15	0.090
497.61	0.091
498.06	0.088
498.52	0.089
498.98	0.087
499.43	0.088
499.89	0.090
500.34	0.085
500.80	0.088
501.25	0.087
501.71	0.087
502.17	0.086
502.62	0.086
503.08	0.086
503.53	0.086
503.99	0.086
504.44	0.087
504.90	0.085
505.36	0.088
505.81	0.088
506.27	0.086
506.72	0.085
507.18	0.086
507.63	0.086
508.09	0.085
508.54	0.085
509.00	0.088
509.45	0.085
509.91	0.084
510.36	0.086
510.82	0.086
511.27	0.083
511.73	0.085
512.19	0.086
512.64	0.085
513.10	0.084
513.55	0.083
514.01	0.084
514.46	0.085
514.92	0.084
515.37	0.085
515.83	0.081
516.28	0.084
516.73	0.083
517.19	0.083
517.64	0.084
518.10	0.083
518.55	0.083
519.01	0.085
519.46	0.083
519.92	0.084
520.37	0.082
520.83	0.082
521.28	0.082
521.74	0.082
522.19	0.082
522.65	0.081
523.10	0.082
523.55	0.083
524.01	0.081
524.46	0.082
524.92	0.081
525.37	0.081
525.83	0.083
526.28	0.081
526.73	0.081
527.19	0.079
527.64	0.080
528.10	0.081
528.55	0.082
529.01	0.080
529.46	0.081
529.91	0.080
530.37	0.081
530.82	0.078
531.28	0.080
531.73	0.079
532.18	0.082
532.64	0.079
533.09	0.080
533.54	0.079
534.00	0.081
534.45	0.081
534.91	0.079
535.36	0.081
535.81	0.078
536.27	0.077
536.72	0.080
537.17	0.079
537.63	0.078
538.08	0.080
538.54	0.081
538.99	0.079
539.44	0.079
539.90	0.081
540.35	0.081
540.80	0.080
541.26	0.080
541.71	0.081
542.16	0.081
542.62	0.082
543.07	0.079
543.52	0.078
543.98	0.078
544.43	0.081
544.88	0.079
545.34	0.081
545.79	0.078
546.24	0.079
546.69	0.078
547.15	0.080
547.60	0.080
548.05	0.081
548.51	0.080
548.96	0.081
549.41	0.080
549.86	0.080
550.32	0.080
550.77	0.079
551.22	0.081
551.68	0.079
552.13	0.081
552.58	0.079
553.03	0.080
553.49	0.080
553.94	0.078
554.39	0.079
554.84	0.079
555.30	0.080
555.75	0.080
556.20	0.078
556.65	0.078
557.11	0.081
557.56	0.080
558.01	0.082
558.46	0.078
558.92	0.080
559.37	0.082
559.82	0.079
560.27	0.081
560.72	0.082
561.18	0.081
561.63	0.082
562.08	0.081
562.53	0.079
562.99	0.080
563.44	0.083
563.89	0.082
564.34	0.082
564.79	0.084
565.25	0.084
565.70	0.085
566.15	0.082
566.60	0.083
567.05	0.083
567.50	0.084
567.96	0.085
568.41	0.084
568.86	0.085
569.31	0.084
569.76	0.084
570.21	0.085
570.67	0.084
571.12	0.085
571.57	0.084
572.02	0.085
572.47	0.085
572.92	0.084
573.37	0.087
573.83	0.084
574.28	0.087
574.73	0.086
575.18	0.087
575.63	0.085
576.08	0.085
576.53	0.084
576.98	0.087
577.44	0.089
577.89	0.085
578.34	0.088
578.79	0.086
579.24	0.086
579.69	0.086
580.14	0.088
580.59	0.088
581.04	0.088
581.49	0.088
581.95	0.087
582.40	0.089
582.85	0.092
583.30	0.090
583.75	0.091
584.20	0.091
584.65	0.091
585.10	0.093
585.55	0.093
586.00	0.090
586.45	0.092
586.90	0.095
587.35	0.093
587.80	0.095
588.25	0.095
588.71	0.094
589.16	0.097
589.61	0.097
590.06	0.095
590.51	0.097
590.96	0.098
591.41	0.099
591.86	0.099
592.31	0.099
592.76	0.100
593.21	0.098
593.66	0.102
594.11	0.101
594.56	0.103
595.01	0.101
595.46	0.102
595.91	0.104
596.36	0.105
596.81	0.106
597.26	0.105
597.71	0.106
598.16	0.106
598.61	0.108
599.06	0.107
599.51	0.107
599.96	0.110
600.41	0.110
600.86	0.109
601.31	0.110
601.76	0.112
602.21	0.113
602.65	0.115
603.10	0.112
603.55	0.112
604.00	0.116
604.45	0.115
604.90	0.115
605.35	0.117
605.80	0.116
606.25	0.115
606.70	0.119
607.15	0.119
607.60	0.117
608.05	0.118
608.50	0.117
608.95	0.118
609.39	0.119
609.84	0.121
610.29	0.121
610.74	0.120
611.19	0.121
611.64	0.120
612.09	0.122
612.54	0.122
612.99	0.123
613.44	0.122
613.88	0.123
614.33	0.122
614.78	0.123
615.23	0.124
615.68	0.123
616.13	0.121
616.58	0.124
617.03	0.124
617.47	0.123
617.92	0.124
618.37	0.125
618.82	0.125
619.27	0.125
619.72	0.125
620.17	0.124
620.61	0.124
621.06	0.125
621.51	0.124
621.96	0.125
622.41	0.125
622.86	0.125
623.30	0.127
623.75	0.125
624.20	0.128
624.65	0.125
625.10	0.128
625.54	0.126
625.99	0.124
626.44	0.127
626.89	0.126
627.34	0.126
627.78	0.126
628.23	0.128
628.68	0.126
629.13	0.128
629.58	0.129
630.02	0.129
630.47	0.129
630.92	0.131
631.37	0.132
631.81	0.133
632.26	0.130
632.71	0.131
633.16	0.134
633.61	0.133
634.05	0.134
634.50	0.134
634.95	0.136
635.40	0.136
635.84	0.136
636.29	0.136
636.74	0.138
637.18	0.139
637.63	0.139
638.08	0.139
638.53	0.139
638.97	0.139
639.42	0.145
639.87	0.143
640.32	0.146
640.76	0.144
641.21	0.146
641.66	0.146
642.10	0.149
642.55	0.148
643.00	0.149
643.44	0.149
643.89	0.152
644.34	0.154
644.79	0.156
645.23	0.156
645.68	0.155
646.13	0.158
646.57	0.159
647.02	0.159
647.47	0.161
647.91	0.160
648.36	0.161
648.81	0.163
649.25	0.165
649.70	0.166
650.15	0.167
650.59	0.169
651.04	0.170
651.48	0.169
651.93	0.172
652.38	0.173
652.82	0.174
653.27	0.169
653.72	0.176
654.16	0.174
654.61	0.177
655.06	0.177
655.50	0.177
655.95	0.178
656.39	0.177
656.84	0.178
657.29	0.182
657.73	0.182
658.18	0.181
658.62	0.182
659.07	0.187
659.52	0.187
659.96	0.186
660.41	0.188
660.85	0.188
661.30	0.188
661.74	0.189
662.19	0.190
662.64	0.188
663.08	0.187
663.53	0.189
663.97	0.188
664.42	0.188
664.86	0.191
665.31	0.190
665.75	0.191
666.20	0.189
666.65	0.189
667.09	0.191
667.54	0.190
667.98	0.187
668.43	0.186
668.87	0.187
669.32	0.188
669.76	0.185
670.21	0.185
670.65	0.183
671.10	0.181
671.54	0.181
671.99	0.179
672.43	0.177
672.88	0.176
673.32	0.175
673.77	0.174
674.21	0.172
674.66	0.168
675.10	0.167
675.55	0.164
675.99	0.161
676.44	0.159
676.88	0.156
677.33	0.153
677.77	0.150
678.22	0.149
678.66	0.146
679.11	0.142
679.55	0.139
679.99	0.137
680.44	0.136
680.88	0.133
681.33	0.131
681.77	0.128
682.22	0.124
682.66	0.120
683.11	0.118
683.55	0.117
683.99	0.114
684.44	0.112
684.88	0.111
685.33	0.108
685.77	0.102
686.21	0.103
686.66	0.100
687.10	0.096
687.55	0.095
687.99	0.093
688.44	0.090
688.88	0.087
689.32	0.087
689.77	0.086
690.21	0.086
690.65	0.081
691.10	0.079
691.54	0.080
691.99	0.077
692.43	0.077
692.87	0.075
693.32	0.074
693.76	0.073
694.20	0.072
694.65	0.070
695.09	0.068
695.53	0.066
695.98	0.068
696.42	0.066
696.86	0.067
697.31	0.066
697.75	0.062
698.19	0.063
698.64	0.062
699.08	0.060
699.52	0.060
699.97	0.059
700.41	0.059
700.85	0.061
701.30	0.057
701.74	0.058
702.18	0.055
702.63	0.057
703.07	0.055
703.51	0.057
703.96	0.055
704.40	0.056
704.84	0.056
705.28	0.054
705.73	0.057
706.17	0.053
706.61	0.055
707.06	0.054
707.50	0.056
707.94	0.054
708.38	0.052
708.83	0.053
709.27	0.053
709.71	0.053
710.15	0.051
710.60	0.054
711.04	0.052
711.48	0.051
711.92	0.051
712.37	0.049
712.81	0.051
713.25	0.054
713.69	0.051
714.13	0.050
714.58	0.051
715.02	0.050
715.46	0.051
715.90	0.052
716.35	0.050
716.79	0.053
717.23	0.053
717.67	0.052
718.11	0.049
718.56	0.052
719.00	0.050
719.44	0.051
719.88	0.051
720.32	0.053
720.76	0.050
721.21	0.051
721.65	0.051
722.09	0.050
722.53	0.050
722.97	0.052
723.41	0.050
723.86	0.052
724.30	0.051
724.74	0.053
725.18	0.051
725.62	0.050
726.06	0.053
726.50	0.053
726.95	0.052
727.39	0.054
727.83	0.052
728.27	0.051
728.71	0.053
729.15	0.052
729.59	0.051
730.03	0.053
730.48	0.053
730.92	0.054
731.36	0.051
731.80	0.053
732.24	0.054
732.68	0.055
733.12	0.052
733.56	0.052
734.00	0.056
734.44	0.053
734.89	0.055
735.33	0.053
735.77	0.055
736.21	0.056
736.65	0.056
737.09	0.057
737.53	0.057
737.97	0.054
738.41	0.054
738.85	0.054
739.29	0.054
739.73	0.055
740.17	0.053
740.61	0.054
741.05	0.055
741.49	0.053
741.93	0.055
742.37	0.055
742.81	0.055
743.26	0.056
743.70	0.054
744.14	0.055
744.58	0.056
745.02	0.054
745.46	0.054
745.90	0.053
746.34	0.054
746.78	0.056
747.22	0.055
747.66	0.052
748.10	0.056
748.54	0.054
748.98	0.054
749.42	0.055
749.86	0.056
750.29	0.055
750.73	0.055
751.17	0.053
751.61	0.057
752.05	0.055
752.49	0.054
752.93	0.053
753.37	0.053
753.81	0.055
754.25	0.054
754.69	0.054
755.13	0.057
755.57	0.055
756.01	0.053
756.45	0.052
756.89	0.055
757.33	0.053
757.77	0.052
758.21	0.053
758.64	0.052
759.08	0.053
759.52	0.054
759.96	0.055
760.40	0.054
760.84	0.054
761.28	0.052
761.72	0.053
762.16	0.051
762.60	0.052
763.03	0.055
763.47	0.052
763.91	0.054
764.35	0.050
764.79	0.052
765.23	0.054
765.67	0.049
766.11	0.052
766.54	0.053
766.98	0.053
767.42	0.052
767.86	0.055
768.30	0.051
768.74	0.052
769.17	0.051
769.61	0.052
770.05	0.051
770.49	0.055
770.93	0.052
771.37	0.055
771.80	0.050
772.24	0.049
772.68	0.053
773.12	0.049
773.56	0.052
774.00	0.052
774.43	0.051
774.87	0.048
775.31	0.053
775.75	0.051
776.19	0.048
776.62	0.050
777.06	0.049
777.50	0.052
777.94	0.049
778.37	0.054
778.81	0.052
779.25	0.047
779.69	0.049
780.13	0.049
780.56	0.047
781.00	0.050
781.44	0.049
781.88	0.052
782.31	0.049
782.75	0.047
783.19	0.049
783.63	0.050
784.06	0.050
784.50	0.048
784.94	0.052
785.37	0.049
785.81	0.049
786.25	0.049
786.69	0.050
787.12	0.050
787.56	0.051
788.00	0.051
788.43	0.050
788.87	0.050
789.31	0.051
789.75	0.048
790.18	0.049
790.62	0.049
791.06	0.049
791.49	0.052
791.93	0.049
792.37	0.049
792.80	0.050
793.24	0.049
793.68	0.050
794.11	0.050
794.55	0.050
794.99	0.047
795.42	0.051
795.86	0.052
796.30	0.050
796.73	0.048
797.17	0.045
797.61	0.049
798.04	0.050
798.48	0.050
798.91	0.048
799.35	0.051
799.79	0.049
800.22	0.051
800.66	0.046
801.10	0.047
801.53	0.055
801.97	0.048
802.40	0.048
802.84	0.045
803.28	0.048
803.71	0.046
804.15	0.051
804.58	0.053
805.02	0.048
805.46	0.049
805.89	0.049
806.33	0.051
806.76	0.047
807.20	0.051
807.63	0.048
808.07	0.048
808.51	0.049
808.94	0.048
809.38	0.046
809.81	0.050
810.25	0.047
810.68	0.049
811.12	0.048
811.55	0.050
811.99	0.048
812.42	0.048
812.86	0.046
813.29	0.049
813.73	0.051
814.17	0.042
814.60	0.048
815.04	0.047
815.47	0.047
815.91	0.041
816.34	0.049
816.78	0.050
817.21	0.049
817.65	0.048
818.08	0.045
818.52	0.049
818.95	0.050
819.39	0.047
819.82	0.048
820.25	0.048
820.69	0.051
821.12	0.052
821.56	0.047
821.99	0.050
822.43	0.049
822.86	0.050
823.30	0.049
823.73	0.048
824.17	0.049
824.60	0.050
825.04	0.051
825.47	0.051
825.90	0.044
826.34	0.052
826.77	0.046
827.21	0.051
827.64	0.052
828.08	0.054
828.51	0.051
828.94	0.051
829.38	0.050
829.81	0.053
830.25	0.056
830.68	0.053
831.11	0.053
831.55	0.056
831.98	0.056
832.42	0.053
832.85	0.055
833.28	0.053
833.72	0.058
834.15	0.061
834.58	0.052
835.02	0.051
835.45	0.057
835.88	0.057
836.32	0.056
836.75	0.057
837.19	0.055
837.62	0.055
838.05	0.058
838.49	0.055
838.92	0.056
839.35	0.056
839.79	0.052
840.22	0.052
840.65	0.056
841.09	0.057
841.52	0.058
841.95	0.058
842.39	0.055
842.82	0.059
843.25	0.056
843.68	0.057
844.12	0.062
844.55	0.057
844.98	0.056
845.42	0.052
845.85	0.053
846.28	0.057
846.71	0.050
847.15	0.057
847.58	0.056
848.01	0.052
848.45	0.054
848.88	0.053
849.31	0.054
849.74	0.058
850.18	0.053
850.61	0.060
851.04	0.056
851.47	0.054
851.91	0.053
852.34	0.058
852.77	0.057
853.20	0.057
853.64	0.057
854.07	0.056
854.50	0.056
854.93	0.055
855.36	0.055
855.80	0.052
856.23	0.059
856.66	0.057
857.09	0.060
857.52	0.058
857.96	0.059
858.39	0.057
858.82	0.052
859.25	0.061
859.68	0.059
860.12	0.058
860.55	0.059
860.98	0.058
861.41	0.058
861.84	0.061
862.27	0.061
862.71	0.063
863.14	0.060
863.57	0.062
864.00	0.057
864.43	0.056
864.86	0.066
865.30	0.058
865.73	0.059
866.16	0.056
866.59	0.064
867.02	0.059
867.45	0.058
867.88	0.060
868.31	0.062
868.75	0.060
869.18	0.058
869.61	0.064
870.04	0.061
870.47	0.061
870.90	0.061
871.33	0.063
871.76	0.059
872.19	0.059
872.62	0.065
873.06	0.062
873.49	0.057
873.92	0.067
874.35	0.065
874.78	0.067
875.21	0.062
875.64	0.065
876.07	0.069
876.50	0.055
876.93	0.061
877.36	0.068
877.79	0.063
878.22	0.059
878.65	0.066
879.08	0.073
879.51	0.062
879.94	0.068
880.37	0.062
880.80	0.062
881.23	0.065
881.67	0.065
882.10	0.062
882.53	0.066
882.96	0.065
883.39	0.071
883.82	0.071
884.25	0.071
884.68	0.062
885.11	0.067
885.54	0.069
885.97	0.064
886.39	0.063
886.82	0.069
887.25	0.069
887.68	0.067
888.11	0.065
888.54	0.066
888.97	0.066
889.40	0.069
889.83	0.067
890.26	0.074
890.69	0.064
891.12	0.069
891.55	0.070
891.98	0.071
892.41	0.068
892.84	0.073
893.27	0.071
893.70	0.068
894.13	0.066
894.56	0.071
894.98	0.072
895.41	0.072
895.84	0.076
896.27	0.066
896.70	0.071
897.13	0.064
897.56	0.071
897.99	0.072
898.42	0.073
898.85	0.077
899.27	0.077
899.70	0.078
900.13	0.073
900.56	0.076
900.99	0.073
901.42	0.070
901.85	0.073
902.28	0.077
902.70	0.076
903.13	0.073
903.56	0.079
903.99	0.075
904.42	0.077
904.85	0.075
905.27	0.076
905.70	0.081
906.13	0.074
906.56	0.075
906.99	0.075
907.42	0.072
907.84	0.077
908.27	0.081
908.70	0.074
909.13	0.073
909.56	0.071
909.98	0.077
910.41	0.076
910.84	0.078
911.27	0.070
911.70	0.073
912.12	0.075
912.55	0.077
912.98	0.072
913.41	0.072
913.84	0.071
914.26	0.072
914.69	0.075
915.12	0.079
915.55	0.072
915.97	0.077
916.40	0.078
916.83	0.074
917.26	0.079
917.68	0.077
918.11	0.079
918.54	0.079
918.97	0.073
919.39	0.077
919.82	0.079
920.25	0.078
920.67	0.074
921.10	0.074
921.53	0.075
921.96	0.077
922.38	0.080
922.81	0.078
923.24	0.079
923.66	0.080
924.09	0.079
924.52	0.082
924.94	0.083
925.37	0.088
925.80	0.085
926.22	0.085
926.65	0.086
927.08	0.083
927.50	0.085
927.93	0.087
928.36	0.088
928.78	0.088
929.21	0.089
929.64	0.091
930.06	0.091
930.49	0.094
930.92	0.088
931.34	0.090
931.77	0.094
932.20	0.094
932.62	0.091
933.05	0.090
933.47	0.096
933.90	0.095
934.33	0.098
934.75	0.098
935.18	0.098
935.61	0.098
936.03	0.104
936.46	0.101
936.88	0.103
937.31	0.107
937.73	0.113
938.16	0.112
938.59	0.117
939.01	0.117
939.44	0.114
939.86	0.115
940.29	0.118
940.71	0.117
941.14	0.120
941.57	0.118
941.99	0.123
942.42	0.123
942.84	0.120
943.27	0.133
943.69	0.134
944.12	0.128
944.54	0.134
944.97	0.133
945.39	0.144
945.82	0.144
946.24	0.130
946.67	0.143
947.09	0.149
947.52	0.138
947.94	0.151
948.37	0.145
948.79	0.149
949.22	0.156
949.64	0.157
950.07	0.162
950.49	0.165
950.92	0.162
951.34	0.171
951.77	0.175
952.19	0.173
952.62	0.173
953.04	0.176
953.47	0.181
953.89	0.186
954.32	0.188
954.74	0.185
955.17	0.194
955.59	0.187
956.01	0.201
956.44	0.207
956.86	0.197
957.29	0.209
957.71	0.208
958.14	0.212
958.56	0.215
958.98	0.220
959.41	0.213
959.83	0.219
960.26	0.218
960.68	0.226
961.10	0.221
961.53	0.220
961.95	0.227
962.38	0.233
962.80	0.230
963.22	0.232
963.65	0.228
964.07	0.231
964.50	0.231
964.92	0.234
965.34	0.238
965.77	0.233
966.19	0.230
966.61	0.232
967.04	0.232
967.46	0.234
967.88	0.232
968.31	0.238
968.73	0.240
969.15	0.235
969.58	0.244
970.00	0.241
970.42	0.250
970.85	0.243
971.27	0.240
971.69	0.239
972.12	0.236
972.54	0.236
972.96	0.242
973.39	0.246
973.81	0.239
974.23	0.241
974.65	0.246
975.08	0.244
975.50	0.245
975.92	0.252
976.35	0.242
976.77	0.237
977.19	0.242
977.61	0.250
978.04	0.245
978.46	0.240
978.88	0.242
979.30	0.241
979.73	0.244
980.15	0.242
980.57	0.239
980.99	0.248
981.42	0.241
981.84	0.241
982.26	0.247
982.68	0.241
983.11	0.240
983.53	0.243
983.95	0.243
984.37	0.236
984.79	0.241
985.22	0.238
985.64	0.237
986.06	0.229
986.48	0.239
986.90	0.236
987.33	0.240
987.75	0.243
988.17	0.246
988.59	0.236
989.01	0.232
989.43	0.235
989.86	0.236
990.28	0.232
990.70	0.232
991.12	0.234
991.54	0.235
991.96	0.233
992.39	0.222
992.81	0.231
993.23	0.226
993.65	0.231
994.07	0.234
994.49	0.230
994.91	0.227
995.34	0.227
995.76	0.225
996.18	0.229
996.60	0.221
997.02	0.223
997.44	0.232
997.86	0.228
998.28	0.221
998.70	0.223
999.12	0.219
999.55	0.220
999.97	0.226
1000.39	0.223
1000.81	0.219
1001.23	0.214
1001.65	0.216
1002.07	0.213
1002.49	0.213
1002.91	0.218
1003.33	0.213
1003.75	0.214
1004.17	0.212
1004.59	0.216
1005.01	0.216
1005.43	0.211
1005.85	0.211
1006.28	0.209
1006.70	0.210
1007.12	0.209
1007.54	0.197
1007.96	0.207
1008.38	0.208
1008.80	0.204
1009.22	0.205
1009.64	0.201
1010.06	0.203
1010.48	0.200
1010.90	0.208
1011.32	0.205
1011.74	0.189
1012.16	0.198
1012.58	0.207
1013.00	0.191
1013.42	0.192
1013.84	0.196
1014.26	0.192
1014.67	0.192
1015.09	0.186
1015.51	0.190
1015.93	0.192
1016.35	0.174
1016.77	0.184
1017.19	0.183
1017.61	0.178
1018.03	0.175
1018.45	0.179
1018.87	0.182
1019.29	0.171
1019.71	0.165
1020.13	0.178
1020.55	0.189
1020.97	0.161
1021.38	0.173
1021.80	0.172
1022.22	0.176
1022.64	0.174
1023.06	0.175
1023.48	0.162
1023.90	0.161
1024.32	0.162
1024.74	0.158
1025.15	0.174
1025.57	0.171
1025.99	0.157
1026.41	0.163
1026.83	0.161
1027.25	0.158
1027.67	0.174
1028.08	0.158
1028.50	0.157
1028.92	0.147
1029.34	0.153
1029.76	0.165
1030.18	0.142
1030.60	0.160
1031.01	0.149
1031.43	0.138
1031.85	0.148
1032.27	0.157
1032.69	0.131
1033.10	0.145
1033.52	0.147
1033.94	0.155
1034.36	0.149
1034.78	0.153
1035.19	0.143
1035.61	0.141
1036.03	0.138
1036.45	0.142
1036.87	0.156
1037.28	0.128
1037.70	0.133
1038.12	0.140
1038.54	0.142
1038.95	0.136
1039.37	0.137
1039.79	0.136
1040.21	0.140
1040.62	0.117
1041.04	0.138
1041.46	0.160
1041.88	0.138
1042.29	0.134
1042.71	0.151
1043.13	0.122
1043.55	0.130
1043.96	0.131
1044.38	0.138
1044.80	0.138
1045.21	0.118
1045.63	0.148
1046.05	0.148
1046.47	0.113
1046.88	0.140
1047.30	0.127
1047.72	0.132
1048.13	0.108
1048.55	0.141
1048.97	0.135
1049.38	0.128
1049.80	0.098
1050.22	0.129
1050.63	0.130
1051.05	0.108
1051.47	0.137
1051.88	0.119
1052.30	0.129
1052.72	0.114
1053.13	0.128
1053.55	0.130
1053.97	0.110
1054.38	0.128
1054.80	0.133
1055.21	0.126
1055.63	0.094
1056.05	0.124
1056.46	0.134
1056.88	0.122
1057.29	0.119
1057.71	0.152
1058.13	0.131
1058.54	0.100
1058.96	0.115
1059.37	0.139
1059.79	0.112
1060.21	0.118
1060.62	0.153
1061.04	0.157
1061.45	0.133
1061.87	0.138
1062.28	0.166
1062.70	0.120
1063.12	0.122
1063.53	0.147
1063.95	0.143
1064.36	0.137
1064.78	0.124
1065.19	0.159
1065.61	0.183
1066.02	0.106
1066.44	0.150
1066.85	0.157
1067.27	0.100
1067.68	0.108
1068.10	0.183
1068.51	0.192
1068.93	0.095
1069.35	0.147
1069.76	0.200
1070.17	0.163
1070.59	0.036
1071.00	0.216
1071.42	0.205
1071.83	0.138
1072.25	0.117
1072.66	0.182
1073.08	0.142
1073.49	0.217
1073.91	0.143
1074.32	0.251
1074.74	0.317
1075.15	0.185
1075.57	0.255
1075.98	0.218
1076.40	0.170
1076.81	0.106
1077.22	0.531
1077.64	0.182
1078.05	0.230
1078.47	0.286
1078.88	0.139
1079.30	0.141
1079.71	0.130
1080.12	0.170
1080.54	0.275
1080.95	0.207
1081.37	0.201
1081.78	1.701
1082.19	0.262
1082.61	0.299
1083.02	0.707
1083.44	0.388
1083.85	0.464
1084.26	0.128
1084.68	0.310
1085.09	0.406
1085.50	0.088
1085.92	0.160
1086.33	-0.000
1086.74	0.199
1087.16	0.247
1087.57	0.529
1087.98	0.936
1088.40	0.212
1088.81	0.262
1089.22	0.279
1089.64	0.159
1090.05	0.353
1090.46	0.276
1090.88	-0.000
1091.29	0.934
1091.70	0.242
1092.12	0.555
1092.53	-0.000
1092.94	0.446
1093.36	0.558
1093.77	0.470
1094.18	0.520
1094.59	-0.000
1095.01	-0.000
1095.42	1.398
1095.83	0.632
1096.25	0.361
1096.66	-0.000
1097.07	0.396
1097.48	0.477
1097.90	-0.000
1098.31	1.180
1098.72	-0.000
1099.13	0.205
>>>>>End Processed Spectral Data<<<<<
