SpectraSuite Data File
++++++++++++++++++++++++++++++++++++
Date: Wed May 04 16:27:12 CEST 2016
User: spectrasuite
Dark Spectrum Present: Yes
Reference Spectrum Present: Yes
Number of Sampled Component Spectra: 1
Spectrometers: HR+C0708
Integration Time (usec): 1000 (HR+C0708)
Spectra Averaged: 10 (HR+C0708)
Boxcar Smoothing: 0 (HR+C0708)
Correct for Electrical Dark: No (HR+C0708)
Strobe/Lamp Enabled: No (HR+C0708)
Correct for Detector Non-linearity: No (HR+C0708)
Correct for Stray Light: No (HR+C0708)
Number of Pixels in Processed Spectrum: 2048
>>>>>Begin Processed Spectral Data<<<<<
188.76	-0.000
189.23	-0.000
189.70	-0.000
190.17	-0.000
190.64	-0.000
191.12	-0.000
191.59	-0.000
192.06	-0.000
192.53	-0.000
193.01	-0.000
193.48	-0.000
193.95	-0.000
194.42	-0.000
194.90	-0.000
195.37	-0.000
195.84	-0.000
196.31	-0.000
196.78	-0.000
197.26	-0.000
197.73	-0.000
198.20	-0.000
198.67	-0.000
199.14	-0.000
199.62	-0.000
200.09	-0.000
200.56	-0.000
201.03	-0.000
201.50	-0.000
201.97	-0.000
202.45	-0.000
202.92	-0.000
203.39	-0.000
203.86	-0.000
204.33	-0.000
204.80	-0.000
205.28	-0.000
205.75	-0.000
206.22	-0.000
206.69	-0.000
207.16	-0.000
207.63	-0.000
208.11	-0.000
208.58	-0.000
209.05	-0.000
209.52	-0.000
209.99	-0.000
210.46	-0.000
210.93	-0.000
211.41	-0.000
211.88	-0.000
212.35	-0.000
212.82	-0.000
213.29	-0.000
213.76	-0.000
214.23	-0.000
214.70	-0.000
215.18	-0.000
215.65	-0.000
216.12	-0.000
216.59	-0.000
217.06	0.979
217.53	1.329
218.00	-0.000
218.47	-0.000
218.94	-0.000
219.41	-0.000
219.89	-0.000
220.36	-0.000
220.83	-0.000
221.30	-0.000
221.77	-0.000
222.24	-0.000
222.71	-0.000
223.18	-0.000
223.65	1.493
224.12	-0.000
224.59	-0.000
225.06	-0.000
225.54	2.000
226.01	-0.000
226.48	-0.000
226.95	-0.000
227.42	-0.000
227.89	-0.000
228.36	-0.000
228.83	-0.000
229.30	1.570
229.77	-0.000
230.24	-0.000
230.71	-0.000
231.18	-0.000
231.65	-0.000
232.12	-0.000
232.59	-0.000
233.06	-0.000
233.53	-0.000
234.00	-0.000
234.47	-0.000
234.94	-0.000
235.41	-0.000
235.88	2.420
236.35	-0.000
236.82	-0.000
237.29	2.465
237.76	-0.000
238.23	-0.000
238.70	-0.000
239.17	-0.000
239.64	-0.000
240.11	-0.000
240.58	-0.000
241.05	3.159
241.52	-0.000
241.99	2.998
242.46	2.858
242.93	-0.000
243.40	-0.000
243.87	-0.000
244.34	2.826
244.81	2.706
245.28	-0.000
245.75	3.793
246.22	2.936
246.69	-0.000
247.16	2.973
247.63	3.074
248.10	3.036
248.57	-0.000
249.04	-0.000
249.51	3.155
249.98	-0.000
250.45	-0.000
250.92	3.703
251.39	2.550
251.85	3.246
252.32	2.260
252.79	2.125
253.26	1.955
253.73	1.828
254.20	1.709
254.67	1.617
255.14	1.539
255.61	1.465
256.08	1.405
256.55	1.318
257.02	1.291
257.49	1.228
257.95	1.179
258.42	1.158
258.89	1.110
259.36	1.075
259.83	1.048
260.30	1.025
260.77	1.002
261.24	0.972
261.71	0.950
262.17	0.936
262.64	0.916
263.11	0.894
263.58	0.881
264.05	0.863
264.52	0.848
264.99	0.835
265.46	0.823
265.92	0.809
266.39	0.792
266.86	0.783
267.33	0.773
267.80	0.759
268.27	0.746
268.74	0.746
269.20	0.731
269.67	0.718
270.14	0.717
270.61	0.707
271.08	0.695
271.55	0.685
272.01	0.684
272.48	0.674
272.95	0.666
273.42	0.660
273.89	0.657
274.36	0.646
274.82	0.641
275.29	0.638
275.76	0.631
276.23	0.626
276.70	0.624
277.16	0.620
277.63	0.615
278.10	0.612
278.57	0.605
279.04	0.607
279.50	0.602
279.97	0.599
280.44	0.596
280.91	0.593
281.38	0.587
281.84	0.585
282.31	0.583
282.78	0.583
283.25	0.582
283.72	0.577
284.18	0.581
284.65	0.583
285.12	0.574
285.59	0.576
286.05	0.576
286.52	0.572
286.99	0.579
287.46	0.573
287.92	0.574
288.39	0.573
288.86	0.572
289.33	0.570
289.79	0.568
290.26	0.566
290.73	0.569
291.20	0.561
291.66	0.559
292.13	0.561
292.60	0.554
293.07	0.548
293.53	0.548
294.00	0.542
294.47	0.534
294.93	0.532
295.40	0.525
295.87	0.520
296.34	0.512
296.80	0.505
297.27	0.495
297.74	0.489
298.20	0.482
298.67	0.479
299.14	0.470
299.60	0.461
300.07	0.453
300.54	0.446
301.01	0.441
301.47	0.434
301.94	0.426
302.41	0.418
302.87	0.410
303.34	0.403
303.81	0.399
304.27	0.393
304.74	0.384
305.21	0.378
305.67	0.371
306.14	0.368
306.61	0.362
307.07	0.356
307.54	0.354
308.01	0.345
308.47	0.340
308.94	0.337
309.40	0.334
309.87	0.330
310.34	0.326
310.80	0.323
311.27	0.318
311.74	0.317
312.20	0.314
312.67	0.310
313.13	0.307
313.60	0.307
314.07	0.302
314.53	0.299
315.00	0.294
315.47	0.298
315.93	0.296
316.40	0.290
316.86	0.290
317.33	0.288
317.80	0.286
318.26	0.284
318.73	0.282
319.19	0.284
319.66	0.279
320.13	0.277
320.59	0.277
321.06	0.278
321.52	0.276
321.99	0.275
322.45	0.274
322.92	0.271
323.39	0.272
323.85	0.268
324.32	0.268
324.78	0.263
325.25	0.260
325.71	0.262
326.18	0.260
326.64	0.255
327.11	0.256
327.58	0.255
328.04	0.256
328.51	0.256
328.97	0.251
329.44	0.249
329.90	0.248
330.37	0.246
330.83	0.246
331.30	0.244
331.76	0.239
332.23	0.241
332.69	0.237
333.16	0.235
333.62	0.236
334.09	0.232
334.56	0.230
335.02	0.229
335.49	0.228
335.95	0.224
336.42	0.224
336.88	0.221
337.35	0.218
337.81	0.218
338.28	0.218
338.74	0.218
339.20	0.218
339.67	0.216
340.13	0.219
340.60	0.214
341.06	0.209
341.53	0.208
341.99	0.207
342.46	0.204
342.92	0.204
343.39	0.201
343.85	0.201
344.32	0.200
344.78	0.202
345.25	0.205
345.71	0.201
346.17	0.203
346.64	0.207
347.10	0.198
347.57	0.197
348.03	0.191
348.50	0.193
348.96	0.195
349.43	0.194
349.89	0.194
350.35	0.195
350.82	0.190
351.28	0.194
351.75	0.192
352.21	0.195
352.67	0.189
353.14	0.191
353.60	0.184
354.07	0.187
354.53	0.189
355.00	0.183
355.46	0.181
355.92	0.180
356.39	0.180
356.85	0.181
357.31	0.173
357.78	0.174
358.24	0.174
358.71	0.175
359.17	0.175
359.63	0.171
360.10	0.172
360.56	0.173
361.03	0.171
361.49	0.170
361.95	0.171
362.42	0.172
362.88	0.171
363.34	0.174
363.81	0.169
364.27	0.170
364.73	0.169
365.20	0.170
365.66	0.168
366.12	0.170
366.59	0.167
367.05	0.169
367.51	0.168
367.98	0.166
368.44	0.167
368.90	0.167
369.37	0.165
369.83	0.165
370.29	0.164
370.76	0.163
371.22	0.161
371.68	0.162
372.15	0.163
372.61	0.160
373.07	0.162
373.54	0.161
374.00	0.161
374.46	0.159
374.92	0.161
375.39	0.162
375.85	0.161
376.31	0.163
376.78	0.161
377.24	0.158
377.70	0.159
378.16	0.158
378.63	0.160
379.09	0.159
379.55	0.156
380.01	0.162
380.48	0.157
380.94	0.158
381.40	0.156
381.87	0.160
382.33	0.157
382.79	0.154
383.25	0.156
383.72	0.158
384.18	0.154
384.64	0.158
385.10	0.155
385.56	0.156
386.03	0.155
386.49	0.155
386.95	0.154
387.41	0.155
387.88	0.152
388.34	0.150
388.80	0.158
389.26	0.153
389.72	0.155
390.19	0.152
390.65	0.149
391.11	0.151
391.57	0.153
392.04	0.151
392.50	0.150
392.96	0.147
393.42	0.150
393.88	0.153
394.34	0.149
394.81	0.149
395.27	0.151
395.73	0.147
396.19	0.149
396.65	0.148
397.12	0.149
397.58	0.146
398.04	0.147
398.50	0.147
398.96	0.148
399.42	0.150
399.89	0.150
400.35	0.151
400.81	0.147
401.27	0.149
401.73	0.147
402.19	0.147
402.65	0.144
403.12	0.145
403.58	0.144
404.04	0.144
404.50	0.142
404.96	0.142
405.42	0.144
405.88	0.144
406.34	0.144
406.81	0.144
407.27	0.142
407.73	0.140
408.19	0.142
408.65	0.138
409.11	0.139
409.57	0.139
410.03	0.140
410.49	0.141
410.96	0.141
411.42	0.139
411.88	0.136
412.34	0.134
412.80	0.137
413.26	0.137
413.72	0.136
414.18	0.136
414.64	0.139
415.10	0.139
415.56	0.138
416.02	0.139
416.48	0.137
416.95	0.139
417.41	0.135
417.87	0.136
418.33	0.136
418.79	0.133
419.25	0.136
419.71	0.133
420.17	0.132
420.63	0.131
421.09	0.131
421.55	0.132
422.01	0.134
422.47	0.136
422.93	0.137
423.39	0.136
423.85	0.134
424.31	0.134
424.77	0.134
425.23	0.134
425.69	0.135
426.15	0.136
426.61	0.135
427.07	0.130
427.53	0.130
427.99	0.132
428.45	0.135
428.91	0.130
429.37	0.129
429.83	0.129
430.29	0.132
430.75	0.133
431.21	0.137
431.67	0.138
432.13	0.136
432.59	0.132
433.05	0.131
433.51	0.130
433.97	0.127
434.43	0.136
434.89	0.137
435.35	0.134
435.81	0.130
436.27	0.134
436.73	0.130
437.19	0.133
437.65	0.131
438.11	0.132
438.57	0.131
439.03	0.132
439.48	0.131
439.94	0.133
440.40	0.128
440.86	0.128
441.32	0.128
441.78	0.127
442.24	0.129
442.70	0.133
443.16	0.126
443.62	0.131
444.08	0.125
444.54	0.129
444.99	0.130
445.45	0.125
445.91	0.125
446.37	0.131
446.83	0.128
447.29	0.130
447.75	0.127
448.21	0.130
448.67	0.130
449.12	0.129
449.58	0.130
450.04	0.133
450.50	0.127
450.96	0.125
451.42	0.128
451.88	0.127
452.34	0.125
452.79	0.127
453.25	0.129
453.71	0.127
454.17	0.126
454.63	0.128
455.09	0.126
455.55	0.127
456.00	0.125
456.46	0.125
456.92	0.127
457.38	0.126
457.84	0.125
458.30	0.127
458.75	0.122
459.21	0.124
459.67	0.125
460.13	0.124
460.59	0.123
461.04	0.125
461.50	0.125
461.96	0.124
462.42	0.124
462.88	0.126
463.33	0.123
463.79	0.122
464.25	0.123
464.71	0.124
465.17	0.124
465.62	0.124
466.08	0.126
466.54	0.128
467.00	0.124
467.46	0.126
467.91	0.125
468.37	0.127
468.83	0.126
469.29	0.127
469.74	0.127
470.20	0.125
470.66	0.124
471.12	0.126
471.57	0.125
472.03	0.125
472.49	0.127
472.95	0.126
473.40	0.126
473.86	0.124
474.32	0.125
474.78	0.125
475.23	0.125
475.69	0.125
476.15	0.128
476.60	0.127
477.06	0.130
477.52	0.124
477.98	0.125
478.43	0.127
478.89	0.124
479.35	0.126
479.80	0.123
480.26	0.121
480.72	0.125
481.18	0.124
481.63	0.127
482.09	0.123
482.55	0.120
483.00	0.122
483.46	0.125
483.92	0.123
484.37	0.124
484.83	0.122
485.29	0.123
485.74	0.122
486.20	0.121
486.66	0.125
487.11	0.123
487.57	0.122
488.03	0.121
488.48	0.125
488.94	0.121
489.40	0.124
489.85	0.122
490.31	0.123
490.77	0.122
491.22	0.125
491.68	0.121
492.13	0.124
492.59	0.123
493.05	0.123
493.50	0.122
493.96	0.121
494.42	0.122
494.87	0.126
495.33	0.120
495.78	0.122
496.24	0.125
496.70	0.124
497.15	0.124
497.61	0.122
498.06	0.121
498.52	0.124
498.98	0.121
499.43	0.123
499.89	0.123
500.34	0.120
500.80	0.122
501.25	0.121
501.71	0.120
502.17	0.119
502.62	0.120
503.08	0.119
503.53	0.121
503.99	0.121
504.44	0.121
504.90	0.119
505.36	0.121
505.81	0.122
506.27	0.118
506.72	0.120
507.18	0.120
507.63	0.119
508.09	0.120
508.54	0.120
509.00	0.120
509.45	0.119
509.91	0.119
510.36	0.121
510.82	0.123
511.27	0.118
511.73	0.119
512.19	0.120
512.64	0.116
513.10	0.121
513.55	0.119
514.01	0.120
514.46	0.119
514.92	0.120
515.37	0.120
515.83	0.119
516.28	0.119
516.73	0.119
517.19	0.121
517.64	0.119
518.10	0.119
518.55	0.120
519.01	0.120
519.46	0.117
519.92	0.117
520.37	0.115
520.83	0.117
521.28	0.115
521.74	0.116
522.19	0.117
522.65	0.117
523.10	0.118
523.55	0.119
524.01	0.119
524.46	0.116
524.92	0.118
525.37	0.119
525.83	0.119
526.28	0.120
526.73	0.119
527.19	0.117
527.64	0.118
528.10	0.117
528.55	0.119
529.01	0.120
529.46	0.119
529.91	0.119
530.37	0.119
530.82	0.118
531.28	0.118
531.73	0.119
532.18	0.120
532.64	0.118
533.09	0.120
533.54	0.119
534.00	0.119
534.45	0.118
534.91	0.118
535.36	0.119
535.81	0.117
536.27	0.119
536.72	0.119
537.17	0.119
537.63	0.119
538.08	0.120
538.54	0.121
538.99	0.122
539.44	0.118
539.90	0.120
540.35	0.120
540.80	0.119
541.26	0.123
541.71	0.124
542.16	0.122
542.62	0.126
543.07	0.124
543.52	0.120
543.98	0.121
544.43	0.122
544.88	0.123
545.34	0.125
545.79	0.124
546.24	0.125
546.69	0.123
547.15	0.123
547.60	0.123
548.05	0.125
548.51	0.126
548.96	0.126
549.41	0.124
549.86	0.126
550.32	0.127
550.77	0.126
551.22	0.125
551.68	0.127
552.13	0.127
552.58	0.127
553.03	0.128
553.49	0.128
553.94	0.129
554.39	0.129
554.84	0.131
555.30	0.129
555.75	0.130
556.20	0.130
556.65	0.132
557.11	0.132
557.56	0.132
558.01	0.132
558.46	0.131
558.92	0.134
559.37	0.135
559.82	0.135
560.27	0.134
560.72	0.135
561.18	0.135
561.63	0.136
562.08	0.137
562.53	0.138
562.99	0.136
563.44	0.138
563.89	0.139
564.34	0.138
564.79	0.140
565.25	0.143
565.70	0.140
566.15	0.141
566.60	0.142
567.05	0.143
567.50	0.144
567.96	0.146
568.41	0.143
568.86	0.143
569.31	0.144
569.76	0.147
570.21	0.146
570.67	0.145
571.12	0.148
571.57	0.148
572.02	0.148
572.47	0.149
572.92	0.150
573.37	0.154
573.83	0.152
574.28	0.153
574.73	0.151
575.18	0.154
575.63	0.153
576.08	0.155
576.53	0.153
576.98	0.156
577.44	0.158
577.89	0.156
578.34	0.160
578.79	0.158
579.24	0.160
579.69	0.160
580.14	0.163
580.59	0.164
581.04	0.164
581.49	0.164
581.95	0.169
582.40	0.168
582.85	0.170
583.30	0.170
583.75	0.172
584.20	0.173
584.65	0.174
585.10	0.176
585.55	0.176
586.00	0.177
586.45	0.179
586.90	0.180
587.35	0.180
587.80	0.182
588.25	0.184
588.71	0.186
589.16	0.188
589.61	0.186
590.06	0.190
590.51	0.191
590.96	0.192
591.41	0.195
591.86	0.195
592.31	0.198
592.76	0.199
593.21	0.198
593.66	0.203
594.11	0.205
594.56	0.204
595.01	0.207
595.46	0.206
595.91	0.210
596.36	0.213
596.81	0.214
597.26	0.216
597.71	0.219
598.16	0.221
598.61	0.222
599.06	0.223
599.51	0.222
599.96	0.227
600.41	0.229
600.86	0.230
601.31	0.229
601.76	0.234
602.21	0.235
602.65	0.239
603.10	0.237
603.55	0.238
604.00	0.243
604.45	0.243
604.90	0.244
605.35	0.247
605.80	0.246
606.25	0.247
606.70	0.250
607.15	0.248
607.60	0.252
608.05	0.253
608.50	0.254
608.95	0.257
609.39	0.256
609.84	0.258
610.29	0.260
610.74	0.259
611.19	0.261
611.64	0.263
612.09	0.264
612.54	0.264
612.99	0.265
613.44	0.264
613.88	0.268
614.33	0.268
614.78	0.269
615.23	0.271
615.68	0.270
616.13	0.270
616.58	0.271
617.03	0.272
617.47	0.274
617.92	0.273
618.37	0.273
618.82	0.276
619.27	0.273
619.72	0.274
620.17	0.275
620.61	0.276
621.06	0.276
621.51	0.277
621.96	0.278
622.41	0.277
622.86	0.279
623.30	0.279
623.75	0.280
624.20	0.282
624.65	0.280
625.10	0.285
625.54	0.282
625.99	0.282
626.44	0.284
626.89	0.285
627.34	0.286
627.78	0.287
628.23	0.288
628.68	0.288
629.13	0.290
629.58	0.290
630.02	0.294
630.47	0.294
630.92	0.295
631.37	0.299
631.81	0.300
632.26	0.300
632.71	0.303
633.16	0.304
633.61	0.305
634.05	0.307
634.50	0.307
634.95	0.312
635.40	0.314
635.84	0.316
636.29	0.317
636.74	0.319
637.18	0.321
637.63	0.322
638.08	0.323
638.53	0.328
638.97	0.329
639.42	0.331
639.87	0.333
640.32	0.337
640.76	0.338
641.21	0.341
641.66	0.342
642.10	0.346
642.55	0.350
643.00	0.352
643.44	0.353
643.89	0.355
644.34	0.358
644.79	0.364
645.23	0.365
645.68	0.368
646.13	0.371
646.57	0.371
647.02	0.375
647.47	0.380
647.91	0.382
648.36	0.383
648.81	0.385
649.25	0.391
649.70	0.390
650.15	0.393
650.59	0.398
651.04	0.399
651.48	0.403
651.93	0.403
652.38	0.408
652.82	0.409
653.27	0.408
653.72	0.414
654.16	0.416
654.61	0.416
655.06	0.420
655.50	0.416
655.95	0.419
656.39	0.420
656.84	0.433
657.29	0.435
657.73	0.432
658.18	0.431
658.62	0.433
659.07	0.436
659.52	0.438
659.96	0.437
660.41	0.439
660.85	0.439
661.30	0.442
661.74	0.442
662.19	0.447
662.64	0.443
663.08	0.442
663.53	0.446
663.97	0.445
664.42	0.441
664.86	0.444
665.31	0.444
665.75	0.443
666.20	0.439
666.65	0.442
667.09	0.443
667.54	0.440
667.98	0.436
668.43	0.437
668.87	0.434
669.32	0.432
669.76	0.429
670.21	0.426
670.65	0.425
671.10	0.418
671.54	0.416
671.99	0.414
672.43	0.405
672.88	0.402
673.32	0.399
673.77	0.394
674.21	0.387
674.66	0.384
675.10	0.378
675.55	0.372
675.99	0.365
676.44	0.357
676.88	0.354
677.33	0.348
677.77	0.340
678.22	0.334
678.66	0.327
679.11	0.318
679.55	0.315
679.99	0.305
680.44	0.299
680.88	0.292
681.33	0.286
681.77	0.280
682.22	0.270
682.66	0.265
683.11	0.258
683.55	0.253
683.99	0.246
684.44	0.240
684.88	0.233
685.33	0.227
685.77	0.220
686.21	0.216
686.66	0.208
687.10	0.202
687.55	0.197
687.99	0.193
688.44	0.189
688.88	0.182
689.32	0.179
689.77	0.174
690.21	0.169
690.65	0.166
691.10	0.161
691.54	0.159
691.99	0.155
692.43	0.152
692.87	0.149
693.32	0.144
693.76	0.139
694.20	0.138
694.65	0.136
695.09	0.133
695.53	0.130
695.98	0.128
696.42	0.127
696.86	0.127
697.31	0.121
697.75	0.121
698.19	0.120
698.64	0.115
699.08	0.114
699.52	0.112
699.97	0.109
700.41	0.110
700.85	0.110
701.30	0.105
701.74	0.106
702.18	0.103
702.63	0.105
703.07	0.099
703.51	0.099
703.96	0.100
704.40	0.101
704.84	0.097
705.28	0.097
705.73	0.097
706.17	0.094
706.61	0.095
707.06	0.095
707.50	0.096
707.94	0.094
708.38	0.091
708.83	0.093
709.27	0.091
709.71	0.090
710.15	0.090
710.60	0.093
711.04	0.088
711.48	0.090
711.92	0.087
712.37	0.087
712.81	0.089
713.25	0.087
713.69	0.088
714.13	0.085
714.58	0.088
715.02	0.087
715.46	0.085
715.90	0.084
716.35	0.084
716.79	0.087
717.23	0.086
717.67	0.087
718.11	0.083
718.56	0.084
719.00	0.086
719.44	0.086
719.88	0.087
720.32	0.086
720.76	0.084
721.21	0.088
721.65	0.085
722.09	0.084
722.53	0.085
722.97	0.084
723.41	0.084
723.86	0.083
724.30	0.084
724.74	0.087
725.18	0.083
725.62	0.084
726.06	0.086
726.50	0.086
726.95	0.086
727.39	0.085
727.83	0.085
728.27	0.085
728.71	0.087
729.15	0.085
729.59	0.084
730.03	0.085
730.48	0.084
730.92	0.087
731.36	0.083
731.80	0.086
732.24	0.091
732.68	0.087
733.12	0.083
733.56	0.090
734.00	0.089
734.44	0.086
734.89	0.089
735.33	0.086
735.77	0.087
736.21	0.087
736.65	0.088
737.09	0.089
737.53	0.088
737.97	0.087
738.41	0.088
738.85	0.088
739.29	0.087
739.73	0.090
740.17	0.087
740.61	0.085
741.05	0.090
741.49	0.087
741.93	0.087
742.37	0.086
742.81	0.088
743.26	0.089
743.70	0.090
744.14	0.087
744.58	0.088
745.02	0.087
745.46	0.087
745.90	0.088
746.34	0.087
746.78	0.089
747.22	0.089
747.66	0.085
748.10	0.088
748.54	0.088
748.98	0.088
749.42	0.089
749.86	0.088
750.29	0.088
750.73	0.092
751.17	0.088
751.61	0.090
752.05	0.086
752.49	0.088
752.93	0.085
753.37	0.086
753.81	0.085
754.25	0.088
754.69	0.087
755.13	0.090
755.57	0.088
756.01	0.088
756.45	0.086
756.89	0.087
757.33	0.086
757.77	0.087
758.21	0.088
758.64	0.084
759.08	0.085
759.52	0.087
759.96	0.086
760.40	0.087
760.84	0.086
761.28	0.086
761.72	0.088
762.16	0.085
762.60	0.086
763.03	0.088
763.47	0.085
763.91	0.086
764.35	0.084
764.79	0.086
765.23	0.085
765.67	0.084
766.11	0.086
766.54	0.086
766.98	0.082
767.42	0.085
767.86	0.089
768.30	0.084
768.74	0.085
769.17	0.086
769.61	0.083
770.05	0.086
770.49	0.088
770.93	0.084
771.37	0.088
771.80	0.082
772.24	0.082
772.68	0.084
773.12	0.084
773.56	0.086
774.00	0.085
774.43	0.085
774.87	0.084
775.31	0.085
775.75	0.083
776.19	0.085
776.62	0.087
777.06	0.083
777.50	0.085
777.94	0.085
778.37	0.086
778.81	0.086
779.25	0.083
779.69	0.083
780.13	0.084
780.56	0.079
781.00	0.085
781.44	0.083
781.88	0.085
782.31	0.083
782.75	0.083
783.19	0.085
783.63	0.085
784.06	0.085
784.50	0.087
784.94	0.086
785.37	0.082
785.81	0.086
786.25	0.084
786.69	0.085
787.12	0.088
787.56	0.087
788.00	0.084
788.43	0.087
788.87	0.084
789.31	0.086
789.75	0.085
790.18	0.084
790.62	0.084
791.06	0.084
791.49	0.087
791.93	0.083
792.37	0.080
792.80	0.083
793.24	0.085
793.68	0.086
794.11	0.086
794.55	0.085
794.99	0.085
795.42	0.089
795.86	0.090
796.30	0.085
796.73	0.082
797.17	0.082
797.61	0.083
798.04	0.087
798.48	0.086
798.91	0.085
799.35	0.084
799.79	0.082
800.22	0.085
800.66	0.085
801.10	0.088
801.53	0.087
801.97	0.086
802.40	0.082
802.84	0.086
803.28	0.083
803.71	0.085
804.15	0.088
804.58	0.089
805.02	0.087
805.46	0.083
805.89	0.086
806.33	0.086
806.76	0.084
807.20	0.089
807.63	0.089
808.07	0.089
808.51	0.084
808.94	0.088
809.38	0.083
809.81	0.090
810.25	0.085
810.68	0.084
811.12	0.085
811.55	0.085
811.99	0.084
812.42	0.088
812.86	0.086
813.29	0.083
813.73	0.086
814.17	0.082
814.60	0.083
815.04	0.081
815.47	0.083
815.91	0.083
816.34	0.089
816.78	0.085
817.21	0.091
817.65	0.086
818.08	0.084
818.52	0.089
818.95	0.090
819.39	0.090
819.82	0.086
820.25	0.086
820.69	0.088
821.12	0.090
821.56	0.086
821.99	0.089
822.43	0.085
822.86	0.090
823.30	0.088
823.73	0.086
824.17	0.089
824.60	0.086
825.04	0.085
825.47	0.082
825.90	0.088
826.34	0.092
826.77	0.090
827.21	0.092
827.64	0.086
828.08	0.093
828.51	0.087
828.94	0.089
829.38	0.091
829.81	0.093
830.25	0.095
830.68	0.093
831.11	0.089
831.55	0.089
831.98	0.097
832.42	0.090
832.85	0.095
833.28	0.093
833.72	0.092
834.15	0.098
834.58	0.090
835.02	0.090
835.45	0.096
835.88	0.096
836.32	0.095
836.75	0.096
837.19	0.092
837.62	0.095
838.05	0.095
838.49	0.090
838.92	0.094
839.35	0.097
839.79	0.095
840.22	0.094
840.65	0.093
841.09	0.095
841.52	0.100
841.95	0.095
842.39	0.093
842.82	0.097
843.25	0.093
843.68	0.098
844.12	0.098
844.55	0.092
844.98	0.102
845.42	0.094
845.85	0.094
846.28	0.097
846.71	0.089
847.15	0.096
847.58	0.099
848.01	0.093
848.45	0.097
848.88	0.097
849.31	0.090
849.74	0.095
850.18	0.093
850.61	0.097
851.04	0.098
851.47	0.093
851.91	0.091
852.34	0.104
852.77	0.095
853.20	0.096
853.64	0.101
854.07	0.095
854.50	0.100
854.93	0.095
855.36	0.098
855.80	0.097
856.23	0.100
856.66	0.095
857.09	0.107
857.52	0.097
857.96	0.098
858.39	0.097
858.82	0.095
859.25	0.102
859.68	0.100
860.12	0.099
860.55	0.097
860.98	0.100
861.41	0.099
861.84	0.106
862.27	0.100
862.71	0.099
863.14	0.103
863.57	0.103
864.00	0.099
864.43	0.092
864.86	0.103
865.30	0.102
865.73	0.101
866.16	0.095
866.59	0.110
867.02	0.104
867.45	0.096
867.88	0.103
868.31	0.102
868.75	0.103
869.18	0.098
869.61	0.103
870.04	0.106
870.47	0.098
870.90	0.102
871.33	0.109
871.76	0.107
872.19	0.095
872.62	0.112
873.06	0.104
873.49	0.099
873.92	0.103
874.35	0.110
874.78	0.112
875.21	0.099
875.64	0.108
876.07	0.109
876.50	0.097
876.93	0.103
877.36	0.108
877.79	0.105
878.22	0.104
878.65	0.107
879.08	0.106
879.51	0.100
879.94	0.105
880.37	0.110
880.80	0.106
881.23	0.107
881.67	0.103
882.10	0.108
882.53	0.112
882.96	0.106
883.39	0.114
883.82	0.111
884.25	0.108
884.68	0.105
885.11	0.108
885.54	0.110
885.97	0.107
886.39	0.099
886.82	0.107
887.25	0.103
887.68	0.109
888.11	0.108
888.54	0.103
888.97	0.105
889.40	0.108
889.83	0.106
890.26	0.109
890.69	0.103
891.12	0.103
891.55	0.111
891.98	0.109
892.41	0.110
892.84	0.112
893.27	0.111
893.70	0.105
894.13	0.107
894.56	0.113
894.98	0.106
895.41	0.109
895.84	0.116
896.27	0.106
896.70	0.107
897.13	0.106
897.56	0.112
897.99	0.103
898.42	0.108
898.85	0.115
899.27	0.114
899.70	0.113
900.13	0.110
900.56	0.113
900.99	0.109
901.42	0.108
901.85	0.109
902.28	0.117
902.70	0.108
903.13	0.112
903.56	0.118
903.99	0.107
904.42	0.112
904.85	0.111
905.27	0.110
905.70	0.113
906.13	0.109
906.56	0.110
906.99	0.113
907.42	0.107
907.84	0.111
908.27	0.117
908.70	0.109
909.13	0.108
909.56	0.111
909.98	0.113
910.41	0.108
910.84	0.107
911.27	0.107
911.70	0.108
912.12	0.106
912.55	0.108
912.98	0.106
913.41	0.109
913.84	0.105
914.26	0.107
914.69	0.107
915.12	0.111
915.55	0.107
915.97	0.109
916.40	0.107
916.83	0.103
917.26	0.109
917.68	0.114
918.11	0.113
918.54	0.107
918.97	0.112
919.39	0.109
919.82	0.110
920.25	0.113
920.67	0.111
921.10	0.112
921.53	0.112
921.96	0.110
922.38	0.115
922.81	0.112
923.24	0.111
923.66	0.115
924.09	0.114
924.52	0.115
924.94	0.115
925.37	0.119
925.80	0.119
926.22	0.118
926.65	0.121
927.08	0.117
927.50	0.124
927.93	0.120
928.36	0.123
928.78	0.124
929.21	0.117
929.64	0.127
930.06	0.126
930.49	0.127
930.92	0.123
931.34	0.127
931.77	0.130
932.20	0.128
932.62	0.123
933.05	0.126
933.47	0.127
933.90	0.131
934.33	0.134
934.75	0.135
935.18	0.134
935.61	0.137
936.03	0.139
936.46	0.135
936.88	0.141
937.31	0.147
937.73	0.154
938.16	0.148
938.59	0.146
939.01	0.157
939.44	0.156
939.86	0.152
940.29	0.158
940.71	0.160
941.14	0.156
941.57	0.164
941.99	0.168
942.42	0.168
942.84	0.173
943.27	0.167
943.69	0.180
944.12	0.177
944.54	0.177
944.97	0.181
945.39	0.185
945.82	0.182
946.24	0.180
946.67	0.191
947.09	0.190
947.52	0.189
947.94	0.189
948.37	0.189
948.79	0.201
949.22	0.197
949.64	0.204
950.07	0.212
950.49	0.202
950.92	0.201
951.34	0.212
951.77	0.206
952.19	0.210
952.62	0.213
953.04	0.219
953.47	0.226
953.89	0.227
954.32	0.233
954.74	0.237
955.17	0.232
955.59	0.238
956.01	0.242
956.44	0.240
956.86	0.239
957.29	0.244
957.71	0.254
958.14	0.247
958.56	0.254
958.98	0.261
959.41	0.258
959.83	0.255
960.26	0.267
960.68	0.264
961.10	0.261
961.53	0.268
961.95	0.271
962.38	0.270
962.80	0.270
963.22	0.269
963.65	0.271
964.07	0.275
964.50	0.271
964.92	0.279
965.34	0.278
965.77	0.267
966.19	0.272
966.61	0.275
967.04	0.277
967.46	0.280
967.88	0.274
968.31	0.278
968.73	0.277
969.15	0.276
969.58	0.278
970.00	0.281
970.42	0.281
970.85	0.280
971.27	0.286
971.69	0.279
972.12	0.280
972.54	0.279
972.96	0.282
973.39	0.281
973.81	0.285
974.23	0.282
974.65	0.282
975.08	0.283
975.50	0.285
975.92	0.282
976.35	0.282
976.77	0.287
977.19	0.281
977.61	0.289
978.04	0.284
978.46	0.276
978.88	0.283
979.30	0.286
979.73	0.282
980.15	0.277
980.57	0.280
980.99	0.287
981.42	0.276
981.84	0.283
982.26	0.285
982.68	0.286
983.11	0.285
983.53	0.285
983.95	0.284
984.37	0.277
984.79	0.283
985.22	0.279
985.64	0.285
986.06	0.271
986.48	0.282
986.90	0.279
987.33	0.282
987.75	0.283
988.17	0.278
988.59	0.279
989.01	0.269
989.43	0.273
989.86	0.277
990.28	0.264
990.70	0.269
991.12	0.273
991.54	0.272
991.96	0.270
992.39	0.262
992.81	0.265
993.23	0.263
993.65	0.269
994.07	0.263
994.49	0.269
994.91	0.269
995.34	0.274
995.76	0.271
996.18	0.265
996.60	0.254
997.02	0.266
997.44	0.263
997.86	0.264
998.28	0.250
998.70	0.261
999.12	0.263
999.55	0.257
999.97	0.268
1000.39	0.260
1000.81	0.258
1001.23	0.251
1001.65	0.256
1002.07	0.252
1002.49	0.252
1002.91	0.247
1003.33	0.250
1003.75	0.260
1004.17	0.252
1004.59	0.261
1005.01	0.256
1005.43	0.240
1005.85	0.253
1006.28	0.242
1006.70	0.248
1007.12	0.254
1007.54	0.245
1007.96	0.244
1008.38	0.245
1008.80	0.243
1009.22	0.238
1009.64	0.244
1010.06	0.243
1010.48	0.241
1010.90	0.244
1011.32	0.245
1011.74	0.238
1012.16	0.237
1012.58	0.245
1013.00	0.237
1013.42	0.233
1013.84	0.231
1014.26	0.238
1014.67	0.230
1015.09	0.233
1015.51	0.240
1015.93	0.233
1016.35	0.221
1016.77	0.234
1017.19	0.226
1017.61	0.218
1018.03	0.222
1018.45	0.228
1018.87	0.233
1019.29	0.219
1019.71	0.215
1020.13	0.210
1020.55	0.225
1020.97	0.208
1021.38	0.210
1021.80	0.218
1022.22	0.214
1022.64	0.208
1023.06	0.219
1023.48	0.231
1023.90	0.219
1024.32	0.212
1024.74	0.211
1025.15	0.204
1025.57	0.219
1025.99	0.214
1026.41	0.208
1026.83	0.219
1027.25	0.204
1027.67	0.211
1028.08	0.219
1028.50	0.215
1028.92	0.201
1029.34	0.215
1029.76	0.209
1030.18	0.207
1030.60	0.213
1031.01	0.216
1031.43	0.203
1031.85	0.206
1032.27	0.203
1032.69	0.203
1033.10	0.202
1033.52	0.205
1033.94	0.204
1034.36	0.208
1034.78	0.199
1035.19	0.208
1035.61	0.195
1036.03	0.185
1036.45	0.192
1036.87	0.214
1037.28	0.204
1037.70	0.185
1038.12	0.184
1038.54	0.201
1038.95	0.195
1039.37	0.200
1039.79	0.192
1040.21	0.199
1040.62	0.169
1041.04	0.211
1041.46	0.203
1041.88	0.197
1042.29	0.175
1042.71	0.191
1043.13	0.183
1043.55	0.186
1043.96	0.191
1044.38	0.190
1044.80	0.211
1045.21	0.208
1045.63	0.203
1046.05	0.190
1046.47	0.192
1046.88	0.226
1047.30	0.191
1047.72	0.199
1048.13	0.184
1048.55	0.188
1048.97	0.224
1049.38	0.181
1049.80	0.176
1050.22	0.222
1050.63	0.198
1051.05	0.186
1051.47	0.221
1051.88	0.189
1052.30	0.207
1052.72	0.183
1053.13	0.200
1053.55	0.230
1053.97	0.188
1054.38	0.188
1054.80	0.233
1055.21	0.204
1055.63	0.177
1056.05	0.227
1056.46	0.228
1056.88	0.218
1057.29	0.197
1057.71	0.269
1058.13	0.243
1058.54	0.242
1058.96	0.225
1059.37	0.294
1059.79	0.279
1060.21	0.227
1060.62	0.272
1061.04	0.289
1061.45	0.273
1061.87	0.284
1062.28	0.284
1062.70	0.355
1063.12	0.274
1063.53	0.278
1063.95	0.392
1064.36	0.312
1064.78	0.290
1065.19	0.364
1065.61	0.390
1066.02	0.295
1066.44	0.345
1066.85	0.356
1067.27	0.351
1067.68	0.372
1068.10	0.287
1068.51	0.433
1068.93	0.283
1069.35	0.336
1069.76	0.637
1070.17	0.552
1070.59	0.324
1071.00	0.562
1071.42	0.480
1071.83	0.622
1072.25	0.524
1072.66	0.587
1073.08	1.100
1073.49	0.656
1073.91	0.537
1074.32	-0.000
1074.74	1.372
1075.15	0.567
1075.57	1.274
1075.98	0.884
1076.40	0.831
1076.81	-0.000
1077.22	-0.000
1077.64	-0.000
1078.05	-0.000
1078.47	-0.000
1078.88	-0.000
1079.30	1.208
1079.71	0.926
1080.12	-0.000
1080.54	-0.000
1080.95	-0.000
1081.37	-0.000
1081.78	-0.000
1082.19	-0.000
1082.61	-0.000
1083.02	-0.000
1083.44	-0.000
1083.85	-0.000
1084.26	-0.000
1084.68	-0.000
1085.09	-0.000
1085.50	-0.000
1085.92	-0.000
1086.33	-0.000
1086.74	-0.000
1087.16	-0.000
1087.57	-0.000
1087.98	-0.000
1088.40	-0.000
1088.81	-0.000
1089.22	-0.000
1089.64	-0.000
1090.05	-0.000
1090.46	-0.000
1090.88	-0.000
1091.29	-0.000
1091.70	-0.000
1092.12	-0.000
1092.53	-0.000
1092.94	-0.000
1093.36	-0.000
1093.77	-0.000
1094.18	-0.000
1094.59	-0.000
1095.01	-0.000
1095.42	-0.000
1095.83	-0.000
1096.25	-0.000
1096.66	-0.000
1097.07	-0.000
1097.48	-0.000
1097.90	-0.000
1098.31	-0.000
1098.72	-0.000
1099.13	-0.000
>>>>>End Processed Spectral Data<<<<<
