SpectraSuite Data File
++++++++++++++++++++++++++++++++++++
Date: Wed May 04 15:46:53 CEST 2016
User: spectrasuite
Dark Spectrum Present: Yes
Reference Spectrum Present: Yes
Number of Sampled Component Spectra: 1
Spectrometers: HR+C0708
Integration Time (usec): 1000 (HR+C0708)
Spectra Averaged: 10 (HR+C0708)
Boxcar Smoothing: 0 (HR+C0708)
Correct for Electrical Dark: No (HR+C0708)
Strobe/Lamp Enabled: No (HR+C0708)
Correct for Detector Non-linearity: No (HR+C0708)
Correct for Stray Light: No (HR+C0708)
Number of Pixels in Processed Spectrum: 2048
>>>>>Begin Processed Spectral Data<<<<<
188.76	-0.000
189.23	-0.000
189.70	-0.000
190.17	-0.000
190.64	-0.000
191.12	-0.000
191.59	-0.000
192.06	-0.000
192.53	-0.000
193.01	-0.000
193.48	-0.000
193.95	-0.000
194.42	-0.000
194.90	-0.000
195.37	-0.000
195.84	-0.000
196.31	-0.000
196.78	-0.000
197.26	-0.000
197.73	-0.000
198.20	-0.000
198.67	-0.000
199.14	-0.000
199.62	-0.000
200.09	-0.000
200.56	-0.000
201.03	-0.000
201.50	2.113
201.97	-0.000
202.45	-0.000
202.92	-0.000
203.39	-0.000
203.86	-0.000
204.33	-0.000
204.80	-0.000
205.28	-0.000
205.75	2.318
206.22	-0.000
206.69	1.536
207.16	-0.000
207.63	-0.000
208.11	-0.000
208.58	-0.000
209.05	-0.000
209.52	-0.000
209.99	-0.000
210.46	1.602
210.93	-0.000
211.41	-0.000
211.88	-0.000
212.35	-0.000
212.82	-0.000
213.29	1.175
213.76	-0.000
214.23	-0.000
214.70	-0.000
215.18	-0.000
215.65	1.368
216.12	1.352
216.59	-0.000
217.06	1.024
217.53	1.577
218.00	-0.000
218.47	1.708
218.94	-0.000
219.41	-0.000
219.89	0.970
220.36	-0.000
220.83	1.986
221.30	-0.000
221.77	-0.000
222.24	1.137
222.71	1.381
223.18	-0.000
223.65	1.001
224.12	1.237
224.59	1.476
225.06	-0.000
225.54	-0.000
226.01	1.399
226.48	-0.000
226.95	-0.000
227.42	1.582
227.89	2.560
228.36	-0.000
228.83	-0.000
229.30	2.172
229.77	-0.000
230.24	1.641
230.71	2.340
231.18	1.892
231.65	-0.000
232.12	-0.000
232.59	-0.000
233.06	-0.000
233.53	-0.000
234.00	2.112
234.47	3.143
234.94	-0.000
235.41	2.359
235.88	2.355
236.35	-0.000
236.82	-0.000
237.29	-0.000
237.76	2.322
238.23	-0.000
238.70	-0.000
239.17	2.870
239.64	-0.000
240.11	-0.000
240.58	2.706
241.05	3.484
241.52	-0.000
241.99	2.910
242.46	2.652
242.93	2.887
243.40	-0.000
243.87	-0.000
244.34	2.357
244.81	2.985
245.28	-0.000
245.75	2.939
246.22	2.911
246.69	-0.000
247.16	3.116
247.63	3.096
248.10	2.998
248.57	-0.000
249.04	-0.000
249.51	2.682
249.98	-0.000
250.45	3.707
250.92	2.627
251.39	2.575
251.85	2.553
252.32	2.280
252.79	2.045
253.26	1.938
253.73	1.821
254.20	1.711
254.67	1.581
255.14	1.528
255.61	1.473
256.08	1.378
256.55	1.315
257.02	1.286
257.49	1.226
257.95	1.170
258.42	1.143
258.89	1.103
259.36	1.080
259.83	1.044
260.30	1.022
260.77	1.001
261.24	0.967
261.71	0.947
262.17	0.934
262.64	0.918
263.11	0.893
263.58	0.880
264.05	0.864
264.52	0.846
264.99	0.832
265.46	0.819
265.92	0.804
266.39	0.794
266.86	0.781
267.33	0.776
267.80	0.759
268.27	0.746
268.74	0.744
269.20	0.734
269.67	0.724
270.14	0.719
270.61	0.709
271.08	0.702
271.55	0.691
272.01	0.685
272.48	0.682
272.95	0.671
273.42	0.662
273.89	0.663
274.36	0.654
274.82	0.642
275.29	0.642
275.76	0.635
276.23	0.634
276.70	0.628
277.16	0.625
277.63	0.622
278.10	0.616
278.57	0.611
279.04	0.613
279.50	0.605
279.97	0.602
280.44	0.604
280.91	0.604
281.38	0.598
281.84	0.598
282.31	0.596
282.78	0.594
283.25	0.593
283.72	0.588
284.18	0.591
284.65	0.587
285.12	0.587
285.59	0.590
286.05	0.585
286.52	0.586
286.99	0.587
287.46	0.587
287.92	0.585
288.39	0.584
288.86	0.583
289.33	0.585
289.79	0.582
290.26	0.577
290.73	0.580
291.20	0.579
291.66	0.572
292.13	0.575
292.60	0.565
293.07	0.564
293.53	0.559
294.00	0.556
294.47	0.550
294.93	0.547
295.40	0.540
295.87	0.535
296.34	0.529
296.80	0.516
297.27	0.510
297.74	0.506
298.20	0.497
298.67	0.484
299.14	0.482
299.60	0.476
300.07	0.465
300.54	0.458
301.01	0.455
301.47	0.442
301.94	0.435
302.41	0.430
302.87	0.422
303.34	0.414
303.81	0.409
304.27	0.402
304.74	0.395
305.21	0.387
305.67	0.379
306.14	0.376
306.61	0.368
307.07	0.361
307.54	0.361
308.01	0.354
308.47	0.347
308.94	0.340
309.40	0.342
309.87	0.338
310.34	0.335
310.80	0.328
311.27	0.326
311.74	0.324
312.20	0.320
312.67	0.319
313.13	0.311
313.60	0.310
314.07	0.310
314.53	0.307
315.00	0.299
315.47	0.303
315.93	0.302
316.40	0.297
316.86	0.295
317.33	0.294
317.80	0.296
318.26	0.291
318.73	0.292
319.19	0.290
319.66	0.286
320.13	0.283
320.59	0.283
321.06	0.285
321.52	0.281
321.99	0.280
322.45	0.279
322.92	0.278
323.39	0.276
323.85	0.276
324.32	0.274
324.78	0.272
325.25	0.271
325.71	0.271
326.18	0.267
326.64	0.266
327.11	0.265
327.58	0.264
328.04	0.263
328.51	0.261
328.97	0.259
329.44	0.261
329.90	0.255
330.37	0.252
330.83	0.254
331.30	0.252
331.76	0.247
332.23	0.248
332.69	0.244
333.16	0.244
333.62	0.242
334.09	0.238
334.56	0.239
335.02	0.234
335.49	0.233
335.95	0.232
336.42	0.233
336.88	0.227
337.35	0.227
337.81	0.225
338.28	0.224
338.74	0.223
339.20	0.223
339.67	0.227
340.13	0.224
340.60	0.222
341.06	0.219
341.53	0.214
341.99	0.214
342.46	0.213
342.92	0.211
343.39	0.209
343.85	0.209
344.32	0.207
344.78	0.207
345.25	0.209
345.71	0.208
346.17	0.210
346.64	0.209
347.10	0.207
347.57	0.203
348.03	0.198
348.50	0.200
348.96	0.204
349.43	0.201
349.89	0.201
350.35	0.199
350.82	0.199
351.28	0.200
351.75	0.199
352.21	0.203
352.67	0.198
353.14	0.198
353.60	0.192
354.07	0.192
354.53	0.193
355.00	0.192
355.46	0.194
355.92	0.187
356.39	0.191
356.85	0.184
357.31	0.180
357.78	0.182
358.24	0.184
358.71	0.184
359.17	0.181
359.63	0.178
360.10	0.180
360.56	0.181
361.03	0.180
361.49	0.180
361.95	0.177
362.42	0.178
362.88	0.181
363.34	0.180
363.81	0.177
364.27	0.178
364.73	0.179
365.20	0.176
365.66	0.177
366.12	0.178
366.59	0.174
367.05	0.177
367.51	0.175
367.98	0.177
368.44	0.174
368.90	0.172
369.37	0.173
369.83	0.173
370.29	0.170
370.76	0.170
371.22	0.170
371.68	0.169
372.15	0.170
372.61	0.167
373.07	0.168
373.54	0.167
374.00	0.168
374.46	0.169
374.92	0.167
375.39	0.168
375.85	0.166
376.31	0.169
376.78	0.168
377.24	0.164
377.70	0.168
378.16	0.167
378.63	0.166
379.09	0.167
379.55	0.169
380.01	0.165
380.48	0.165
380.94	0.167
381.40	0.164
381.87	0.166
382.33	0.163
382.79	0.162
383.25	0.166
383.72	0.165
384.18	0.164
384.64	0.164
385.10	0.161
385.56	0.162
386.03	0.164
386.49	0.163
386.95	0.160
387.41	0.161
387.88	0.159
388.34	0.158
388.80	0.164
389.26	0.161
389.72	0.163
390.19	0.157
390.65	0.159
391.11	0.161
391.57	0.160
392.04	0.160
392.50	0.159
392.96	0.157
393.42	0.157
393.88	0.161
394.34	0.157
394.81	0.158
395.27	0.157
395.73	0.154
396.19	0.157
396.65	0.156
397.12	0.152
397.58	0.156
398.04	0.155
398.50	0.157
398.96	0.154
399.42	0.157
399.89	0.158
400.35	0.156
400.81	0.156
401.27	0.156
401.73	0.153
402.19	0.155
402.65	0.152
403.12	0.153
403.58	0.152
404.04	0.149
404.50	0.148
404.96	0.147
405.42	0.152
405.88	0.151
406.34	0.152
406.81	0.151
407.27	0.148
407.73	0.148
408.19	0.147
408.65	0.146
409.11	0.147
409.57	0.145
410.03	0.149
410.49	0.148
410.96	0.148
411.42	0.146
411.88	0.144
412.34	0.143
412.80	0.145
413.26	0.143
413.72	0.142
414.18	0.144
414.64	0.143
415.10	0.144
415.56	0.146
416.02	0.142
416.48	0.142
416.95	0.146
417.41	0.142
417.87	0.145
418.33	0.142
418.79	0.139
419.25	0.142
419.71	0.143
420.17	0.138
420.63	0.140
421.09	0.137
421.55	0.138
422.01	0.139
422.47	0.145
422.93	0.142
423.39	0.140
423.85	0.137
424.31	0.142
424.77	0.138
425.23	0.139
425.69	0.145
426.15	0.142
426.61	0.140
427.07	0.137
427.53	0.138
427.99	0.140
428.45	0.140
428.91	0.136
429.37	0.136
429.83	0.136
430.29	0.139
430.75	0.143
431.21	0.141
431.67	0.144
432.13	0.140
432.59	0.136
433.05	0.137
433.51	0.136
433.97	0.132
434.43	0.141
434.89	0.143
435.35	0.138
435.81	0.141
436.27	0.138
436.73	0.137
437.19	0.140
437.65	0.138
438.11	0.137
438.57	0.140
439.03	0.138
439.48	0.137
439.94	0.137
440.40	0.137
440.86	0.136
441.32	0.135
441.78	0.135
442.24	0.140
442.70	0.138
443.16	0.137
443.62	0.136
444.08	0.134
444.54	0.133
444.99	0.136
445.45	0.132
445.91	0.133
446.37	0.134
446.83	0.135
447.29	0.136
447.75	0.134
448.21	0.137
448.67	0.136
449.12	0.132
449.58	0.134
450.04	0.137
450.50	0.133
450.96	0.132
451.42	0.136
451.88	0.137
452.34	0.132
452.79	0.132
453.25	0.133
453.71	0.134
454.17	0.131
454.63	0.134
455.09	0.133
455.55	0.134
456.00	0.132
456.46	0.134
456.92	0.132
457.38	0.134
457.84	0.132
458.30	0.133
458.75	0.132
459.21	0.129
459.67	0.129
460.13	0.132
460.59	0.129
461.04	0.131
461.50	0.131
461.96	0.132
462.42	0.131
462.88	0.129
463.33	0.129
463.79	0.132
464.25	0.128
464.71	0.133
465.17	0.132
465.62	0.129
466.08	0.132
466.54	0.134
467.00	0.131
467.46	0.133
467.91	0.132
468.37	0.131
468.83	0.134
469.29	0.134
469.74	0.131
470.20	0.135
470.66	0.132
471.12	0.130
471.57	0.131
472.03	0.130
472.49	0.131
472.95	0.133
473.40	0.131
473.86	0.133
474.32	0.132
474.78	0.129
475.23	0.134
475.69	0.130
476.15	0.135
476.60	0.132
477.06	0.132
477.52	0.130
477.98	0.133
478.43	0.134
478.89	0.132
479.35	0.133
479.80	0.131
480.26	0.129
480.72	0.131
481.18	0.131
481.63	0.132
482.09	0.131
482.55	0.128
483.00	0.129
483.46	0.132
483.92	0.130
484.37	0.129
484.83	0.127
485.29	0.132
485.74	0.129
486.20	0.129
486.66	0.131
487.11	0.130
487.57	0.131
488.03	0.129
488.48	0.133
488.94	0.129
489.40	0.129
489.85	0.131
490.31	0.130
490.77	0.130
491.22	0.132
491.68	0.131
492.13	0.130
492.59	0.132
493.05	0.130
493.50	0.129
493.96	0.128
494.42	0.133
494.87	0.130
495.33	0.128
495.78	0.128
496.24	0.128
496.70	0.132
497.15	0.128
497.61	0.131
498.06	0.130
498.52	0.130
498.98	0.128
499.43	0.129
499.89	0.127
500.34	0.126
500.80	0.129
501.25	0.127
501.71	0.126
502.17	0.127
502.62	0.127
503.08	0.125
503.53	0.126
503.99	0.127
504.44	0.129
504.90	0.126
505.36	0.127
505.81	0.126
506.27	0.125
506.72	0.126
507.18	0.125
507.63	0.126
508.09	0.128
508.54	0.126
509.00	0.126
509.45	0.127
509.91	0.127
510.36	0.126
510.82	0.128
511.27	0.125
511.73	0.126
512.19	0.129
512.64	0.123
513.10	0.130
513.55	0.125
514.01	0.127
514.46	0.129
514.92	0.126
515.37	0.127
515.83	0.125
516.28	0.126
516.73	0.126
517.19	0.125
517.64	0.126
518.10	0.126
518.55	0.127
519.01	0.126
519.46	0.124
519.92	0.124
520.37	0.124
520.83	0.128
521.28	0.123
521.74	0.124
522.19	0.126
522.65	0.124
523.10	0.123
523.55	0.125
524.01	0.124
524.46	0.126
524.92	0.123
525.37	0.127
525.83	0.127
526.28	0.124
526.73	0.123
527.19	0.123
527.64	0.126
528.10	0.124
528.55	0.126
529.01	0.125
529.46	0.124
529.91	0.125
530.37	0.125
530.82	0.126
531.28	0.127
531.73	0.124
532.18	0.127
532.64	0.124
533.09	0.126
533.54	0.124
534.00	0.127
534.45	0.127
534.91	0.124
535.36	0.125
535.81	0.125
536.27	0.123
536.72	0.124
537.17	0.128
537.63	0.126
538.08	0.127
538.54	0.128
538.99	0.129
539.44	0.126
539.90	0.128
540.35	0.128
540.80	0.127
541.26	0.127
541.71	0.130
542.16	0.130
542.62	0.131
543.07	0.129
543.52	0.129
543.98	0.129
544.43	0.130
544.88	0.127
545.34	0.129
545.79	0.131
546.24	0.130
546.69	0.129
547.15	0.131
547.60	0.130
548.05	0.132
548.51	0.133
548.96	0.132
549.41	0.132
549.86	0.131
550.32	0.133
550.77	0.132
551.22	0.134
551.68	0.133
552.13	0.136
552.58	0.133
553.03	0.137
553.49	0.134
553.94	0.133
554.39	0.135
554.84	0.136
555.30	0.136
555.75	0.136
556.20	0.138
556.65	0.138
557.11	0.139
557.56	0.139
558.01	0.142
558.46	0.140
558.92	0.141
559.37	0.142
559.82	0.143
560.27	0.142
560.72	0.143
561.18	0.143
561.63	0.143
562.08	0.143
562.53	0.143
562.99	0.144
563.44	0.146
563.89	0.145
564.34	0.148
564.79	0.150
565.25	0.148
565.70	0.149
566.15	0.150
566.60	0.149
567.05	0.150
567.50	0.152
567.96	0.153
568.41	0.152
568.86	0.152
569.31	0.152
569.76	0.154
570.21	0.155
570.67	0.153
571.12	0.156
571.57	0.155
572.02	0.156
572.47	0.159
572.92	0.158
573.37	0.160
573.83	0.161
574.28	0.160
574.73	0.161
575.18	0.163
575.63	0.164
576.08	0.162
576.53	0.164
576.98	0.165
577.44	0.167
577.89	0.166
578.34	0.169
578.79	0.168
579.24	0.170
579.69	0.169
580.14	0.173
580.59	0.172
581.04	0.175
581.49	0.174
581.95	0.176
582.40	0.178
582.85	0.181
583.30	0.180
583.75	0.183
584.20	0.181
584.65	0.184
585.10	0.185
585.55	0.186
586.00	0.188
586.45	0.188
586.90	0.189
587.35	0.192
587.80	0.193
588.25	0.194
588.71	0.198
589.16	0.199
589.61	0.200
590.06	0.201
590.51	0.205
590.96	0.204
591.41	0.207
591.86	0.208
592.31	0.212
592.76	0.211
593.21	0.210
593.66	0.216
594.11	0.216
594.56	0.217
595.01	0.219
595.46	0.221
595.91	0.224
596.36	0.224
596.81	0.228
597.26	0.228
597.71	0.230
598.16	0.232
598.61	0.235
599.06	0.234
599.51	0.238
599.96	0.237
600.41	0.240
600.86	0.244
601.31	0.245
601.76	0.247
602.21	0.251
602.65	0.252
603.10	0.250
603.55	0.253
604.00	0.257
604.45	0.257
604.90	0.258
605.35	0.261
605.80	0.262
606.25	0.264
606.70	0.266
607.15	0.268
607.60	0.269
608.05	0.269
608.50	0.273
608.95	0.273
609.39	0.273
609.84	0.275
610.29	0.276
610.74	0.276
611.19	0.277
611.64	0.278
612.09	0.279
612.54	0.281
612.99	0.281
613.44	0.283
613.88	0.284
614.33	0.283
614.78	0.285
615.23	0.287
615.68	0.287
616.13	0.288
616.58	0.288
617.03	0.289
617.47	0.287
617.92	0.289
618.37	0.294
618.82	0.289
619.27	0.290
619.72	0.293
620.17	0.292
620.61	0.292
621.06	0.293
621.51	0.292
621.96	0.294
622.41	0.293
622.86	0.295
623.30	0.296
623.75	0.298
624.20	0.297
624.65	0.298
625.10	0.300
625.54	0.298
625.99	0.298
626.44	0.302
626.89	0.302
627.34	0.304
627.78	0.304
628.23	0.307
628.68	0.308
629.13	0.307
629.58	0.310
630.02	0.311
630.47	0.312
630.92	0.311
631.37	0.316
631.81	0.315
632.26	0.318
632.71	0.319
633.16	0.323
633.61	0.323
634.05	0.326
634.50	0.326
634.95	0.328
635.40	0.330
635.84	0.332
636.29	0.333
636.74	0.335
637.18	0.341
637.63	0.343
638.08	0.343
638.53	0.346
638.97	0.347
639.42	0.354
639.87	0.351
640.32	0.356
640.76	0.359
641.21	0.361
641.66	0.362
642.10	0.365
642.55	0.366
643.00	0.372
643.44	0.375
643.89	0.379
644.34	0.381
644.79	0.385
645.23	0.386
645.68	0.390
646.13	0.393
646.57	0.395
647.02	0.398
647.47	0.401
647.91	0.402
648.36	0.406
648.81	0.409
649.25	0.413
649.70	0.414
650.15	0.418
650.59	0.420
651.04	0.424
651.48	0.424
651.93	0.433
652.38	0.432
652.82	0.435
653.27	0.435
653.72	0.440
654.16	0.441
654.61	0.443
655.06	0.444
655.50	0.446
655.95	0.445
656.39	0.447
656.84	0.458
657.29	0.459
657.73	0.458
658.18	0.458
658.62	0.461
659.07	0.464
659.52	0.464
659.96	0.467
660.41	0.469
660.85	0.467
661.30	0.470
661.74	0.472
662.19	0.473
662.64	0.471
663.08	0.474
663.53	0.471
663.97	0.473
664.42	0.472
664.86	0.472
665.31	0.474
665.75	0.473
666.20	0.470
666.65	0.472
667.09	0.470
667.54	0.467
667.98	0.465
668.43	0.463
668.87	0.461
669.32	0.461
669.76	0.454
670.21	0.454
670.65	0.451
671.10	0.447
671.54	0.444
671.99	0.442
672.43	0.433
672.88	0.430
673.32	0.423
673.77	0.421
674.21	0.415
674.66	0.410
675.10	0.402
675.55	0.397
675.99	0.388
676.44	0.384
676.88	0.378
677.33	0.368
677.77	0.363
678.22	0.357
678.66	0.349
679.11	0.338
679.55	0.334
679.99	0.323
680.44	0.322
680.88	0.310
681.33	0.303
681.77	0.295
682.22	0.286
682.66	0.282
683.11	0.274
683.55	0.268
683.99	0.262
684.44	0.256
684.88	0.248
685.33	0.242
685.77	0.232
686.21	0.228
686.66	0.223
687.10	0.215
687.55	0.211
687.99	0.205
688.44	0.200
688.88	0.193
689.32	0.191
689.77	0.184
690.21	0.181
690.65	0.175
691.10	0.170
691.54	0.169
691.99	0.164
692.43	0.161
692.87	0.157
693.32	0.152
693.76	0.150
694.20	0.146
694.65	0.142
695.09	0.141
695.53	0.136
695.98	0.135
696.42	0.135
696.86	0.131
697.31	0.129
697.75	0.127
698.19	0.124
698.64	0.121
699.08	0.122
699.52	0.119
699.97	0.116
700.41	0.114
700.85	0.116
701.30	0.110
701.74	0.110
702.18	0.108
702.63	0.108
703.07	0.106
703.51	0.105
703.96	0.104
704.40	0.105
704.84	0.103
705.28	0.101
705.73	0.101
706.17	0.101
706.61	0.100
707.06	0.097
707.50	0.099
707.94	0.099
708.38	0.096
708.83	0.098
709.27	0.096
709.71	0.096
710.15	0.095
710.60	0.097
711.04	0.093
711.48	0.094
711.92	0.093
712.37	0.092
712.81	0.090
713.25	0.091
713.69	0.092
714.13	0.092
714.58	0.090
715.02	0.089
715.46	0.091
715.90	0.090
716.35	0.089
716.79	0.089
717.23	0.091
717.67	0.089
718.11	0.088
718.56	0.089
719.00	0.088
719.44	0.087
719.88	0.092
720.32	0.090
720.76	0.088
721.21	0.089
721.65	0.089
722.09	0.088
722.53	0.087
722.97	0.090
723.41	0.088
723.86	0.088
724.30	0.088
724.74	0.091
725.18	0.088
725.62	0.088
726.06	0.088
726.50	0.091
726.95	0.089
727.39	0.089
727.83	0.090
728.27	0.091
728.71	0.088
729.15	0.090
729.59	0.087
730.03	0.089
730.48	0.089
730.92	0.090
731.36	0.087
731.80	0.090
732.24	0.090
732.68	0.089
733.12	0.092
733.56	0.089
734.00	0.092
734.44	0.090
734.89	0.092
735.33	0.088
735.77	0.091
736.21	0.090
736.65	0.091
737.09	0.093
737.53	0.093
737.97	0.090
738.41	0.090
738.85	0.091
739.29	0.088
739.73	0.090
740.17	0.090
740.61	0.089
741.05	0.093
741.49	0.091
741.93	0.090
742.37	0.090
742.81	0.092
743.26	0.092
743.70	0.091
744.14	0.094
744.58	0.090
745.02	0.091
745.46	0.092
745.90	0.088
746.34	0.091
746.78	0.093
747.22	0.093
747.66	0.091
748.10	0.090
748.54	0.091
748.98	0.093
749.42	0.091
749.86	0.092
750.29	0.091
750.73	0.091
751.17	0.092
751.61	0.092
752.05	0.090
752.49	0.091
752.93	0.088
753.37	0.093
753.81	0.091
754.25	0.091
754.69	0.093
755.13	0.095
755.57	0.089
756.01	0.089
756.45	0.087
756.89	0.090
757.33	0.089
757.77	0.089
758.21	0.090
758.64	0.088
759.08	0.088
759.52	0.088
759.96	0.090
760.40	0.087
760.84	0.086
761.28	0.087
761.72	0.089
762.16	0.087
762.60	0.090
763.03	0.091
763.47	0.087
763.91	0.089
764.35	0.086
764.79	0.089
765.23	0.089
765.67	0.090
766.11	0.089
766.54	0.086
766.98	0.087
767.42	0.089
767.86	0.089
768.30	0.085
768.74	0.088
769.17	0.090
769.61	0.089
770.05	0.089
770.49	0.092
770.93	0.089
771.37	0.089
771.80	0.087
772.24	0.086
772.68	0.087
773.12	0.086
773.56	0.089
774.00	0.090
774.43	0.088
774.87	0.086
775.31	0.086
775.75	0.088
776.19	0.088
776.62	0.089
777.06	0.088
777.50	0.087
777.94	0.084
778.37	0.089
778.81	0.090
779.25	0.087
779.69	0.085
780.13	0.087
780.56	0.086
781.00	0.087
781.44	0.086
781.88	0.090
782.31	0.084
782.75	0.084
783.19	0.088
783.63	0.085
784.06	0.085
784.50	0.087
784.94	0.090
785.37	0.088
785.81	0.089
786.25	0.087
786.69	0.088
787.12	0.088
787.56	0.090
788.00	0.088
788.43	0.088
788.87	0.089
789.31	0.090
789.75	0.089
790.18	0.088
790.62	0.088
791.06	0.087
791.49	0.089
791.93	0.084
792.37	0.084
792.80	0.090
793.24	0.089
793.68	0.089
794.11	0.091
794.55	0.089
794.99	0.088
795.42	0.093
795.86	0.091
796.30	0.087
796.73	0.087
797.17	0.088
797.61	0.090
798.04	0.088
798.48	0.085
798.91	0.089
799.35	0.088
799.79	0.088
800.22	0.088
800.66	0.087
801.10	0.090
801.53	0.093
801.97	0.088
802.40	0.087
802.84	0.084
803.28	0.085
803.71	0.087
804.15	0.090
804.58	0.088
805.02	0.090
805.46	0.086
805.89	0.088
806.33	0.088
806.76	0.088
807.20	0.088
807.63	0.089
808.07	0.085
808.51	0.091
808.94	0.087
809.38	0.084
809.81	0.088
810.25	0.087
810.68	0.086
811.12	0.090
811.55	0.091
811.99	0.090
812.42	0.089
812.86	0.086
813.29	0.088
813.73	0.087
814.17	0.081
814.60	0.082
815.04	0.087
815.47	0.081
815.91	0.083
816.34	0.089
816.78	0.088
817.21	0.092
817.65	0.088
818.08	0.088
818.52	0.085
818.95	0.093
819.39	0.089
819.82	0.085
820.25	0.090
820.69	0.089
821.12	0.092
821.56	0.089
821.99	0.092
822.43	0.091
822.86	0.088
823.30	0.088
823.73	0.086
824.17	0.092
824.60	0.083
825.04	0.089
825.47	0.093
825.90	0.087
826.34	0.089
826.77	0.087
827.21	0.090
827.64	0.093
828.08	0.096
828.51	0.092
828.94	0.094
829.38	0.093
829.81	0.091
830.25	0.098
830.68	0.093
831.11	0.092
831.55	0.098
831.98	0.096
832.42	0.096
832.85	0.098
833.28	0.092
833.72	0.097
834.15	0.097
834.58	0.094
835.02	0.095
835.45	0.093
835.88	0.093
836.32	0.099
836.75	0.097
837.19	0.096
837.62	0.093
838.05	0.098
838.49	0.093
838.92	0.095
839.35	0.094
839.79	0.096
840.22	0.096
840.65	0.096
841.09	0.097
841.52	0.098
841.95	0.095
842.39	0.095
842.82	0.101
843.25	0.098
843.68	0.099
844.12	0.096
844.55	0.101
844.98	0.099
845.42	0.096
845.85	0.097
846.28	0.099
846.71	0.091
847.15	0.099
847.58	0.100
848.01	0.096
848.45	0.094
848.88	0.093
849.31	0.095
849.74	0.097
850.18	0.096
850.61	0.103
851.04	0.094
851.47	0.092
851.91	0.100
852.34	0.096
852.77	0.097
853.20	0.104
853.64	0.102
854.07	0.098
854.50	0.099
854.93	0.090
855.36	0.101
855.80	0.097
856.23	0.100
856.66	0.102
857.09	0.105
857.52	0.098
857.96	0.099
858.39	0.103
858.82	0.100
859.25	0.104
859.68	0.099
860.12	0.099
860.55	0.100
860.98	0.102
861.41	0.107
861.84	0.100
862.27	0.100
862.71	0.107
863.14	0.101
863.57	0.100
864.00	0.102
864.43	0.099
864.86	0.106
865.30	0.100
865.73	0.102
866.16	0.105
866.59	0.105
867.02	0.101
867.45	0.106
867.88	0.108
868.31	0.102
868.75	0.105
869.18	0.103
869.61	0.109
870.04	0.105
870.47	0.101
870.90	0.109
871.33	0.106
871.76	0.101
872.19	0.101
872.62	0.103
873.06	0.101
873.49	0.105
873.92	0.109
874.35	0.105
874.78	0.111
875.21	0.104
875.64	0.111
876.07	0.107
876.50	0.105
876.93	0.110
877.36	0.111
877.79	0.103
878.22	0.104
878.65	0.105
879.08	0.110
879.51	0.103
879.94	0.109
880.37	0.111
880.80	0.105
881.23	0.107
881.67	0.110
882.10	0.109
882.53	0.107
882.96	0.115
883.39	0.114
883.82	0.108
884.25	0.109
884.68	0.108
885.11	0.112
885.54	0.110
885.97	0.102
886.39	0.105
886.82	0.107
887.25	0.110
887.68	0.112
888.11	0.107
888.54	0.107
888.97	0.107
889.40	0.104
889.83	0.108
890.26	0.112
890.69	0.108
891.12	0.109
891.55	0.112
891.98	0.108
892.41	0.111
892.84	0.110
893.27	0.108
893.70	0.104
894.13	0.109
894.56	0.106
894.98	0.112
895.41	0.108
895.84	0.115
896.27	0.108
896.70	0.111
897.13	0.107
897.56	0.115
897.99	0.110
898.42	0.113
898.85	0.114
899.27	0.113
899.70	0.118
900.13	0.111
900.56	0.112
900.99	0.113
901.42	0.109
901.85	0.113
902.28	0.116
902.70	0.109
903.13	0.112
903.56	0.116
903.99	0.109
904.42	0.115
904.85	0.111
905.27	0.114
905.70	0.114
906.13	0.113
906.56	0.113
906.99	0.111
907.42	0.105
907.84	0.113
908.27	0.111
908.70	0.112
909.13	0.111
909.56	0.109
909.98	0.111
910.41	0.114
910.84	0.111
911.27	0.107
911.70	0.111
912.12	0.110
912.55	0.111
912.98	0.110
913.41	0.108
913.84	0.110
914.26	0.107
914.69	0.107
915.12	0.112
915.55	0.102
915.97	0.110
916.40	0.110
916.83	0.110
917.26	0.113
917.68	0.114
918.11	0.116
918.54	0.114
918.97	0.110
919.39	0.115
919.82	0.113
920.25	0.108
920.67	0.110
921.10	0.113
921.53	0.111
921.96	0.112
922.38	0.114
922.81	0.113
923.24	0.115
923.66	0.116
924.09	0.115
924.52	0.119
924.94	0.114
925.37	0.120
925.80	0.119
926.22	0.120
926.65	0.118
927.08	0.121
927.50	0.121
927.93	0.124
928.36	0.124
928.78	0.122
929.21	0.123
929.64	0.126
930.06	0.129
930.49	0.131
930.92	0.126
931.34	0.129
931.77	0.130
932.20	0.129
932.62	0.130
933.05	0.127
933.47	0.132
933.90	0.136
934.33	0.133
934.75	0.134
935.18	0.136
935.61	0.137
936.03	0.139
936.46	0.141
936.88	0.141
937.31	0.148
937.73	0.153
938.16	0.148
938.59	0.146
939.01	0.158
939.44	0.157
939.86	0.162
940.29	0.157
940.71	0.163
941.14	0.167
941.57	0.163
941.99	0.165
942.42	0.174
942.84	0.169
943.27	0.174
943.69	0.182
944.12	0.176
944.54	0.184
944.97	0.172
945.39	0.185
945.82	0.185
946.24	0.175
946.67	0.184
947.09	0.190
947.52	0.188
947.94	0.191
948.37	0.196
948.79	0.195
949.22	0.206
949.64	0.199
950.07	0.205
950.49	0.215
950.92	0.208
951.34	0.213
951.77	0.212
952.19	0.209
952.62	0.215
953.04	0.219
953.47	0.225
953.89	0.229
954.32	0.232
954.74	0.239
955.17	0.236
955.59	0.233
956.01	0.241
956.44	0.247
956.86	0.239
957.29	0.248
957.71	0.256
958.14	0.248
958.56	0.252
958.98	0.260
959.41	0.258
959.83	0.268
960.26	0.260
960.68	0.261
961.10	0.276
961.53	0.265
961.95	0.265
962.38	0.278
962.80	0.272
963.22	0.270
963.65	0.273
964.07	0.273
964.50	0.273
964.92	0.274
965.34	0.279
965.77	0.278
966.19	0.274
966.61	0.275
967.04	0.283
967.46	0.280
967.88	0.273
968.31	0.279
968.73	0.279
969.15	0.278
969.58	0.281
970.00	0.274
970.42	0.284
970.85	0.276
971.27	0.279
971.69	0.283
972.12	0.276
972.54	0.278
972.96	0.283
973.39	0.288
973.81	0.281
974.23	0.286
974.65	0.284
975.08	0.287
975.50	0.285
975.92	0.278
976.35	0.281
976.77	0.284
977.19	0.282
977.61	0.287
978.04	0.284
978.46	0.283
978.88	0.285
979.30	0.286
979.73	0.284
980.15	0.279
980.57	0.281
980.99	0.293
981.42	0.277
981.84	0.285
982.26	0.290
982.68	0.287
983.11	0.280
983.53	0.283
983.95	0.285
984.37	0.276
984.79	0.278
985.22	0.278
985.64	0.283
986.06	0.267
986.48	0.283
986.90	0.280
987.33	0.277
987.75	0.275
988.17	0.278
988.59	0.275
989.01	0.271
989.43	0.276
989.86	0.271
990.28	0.273
990.70	0.267
991.12	0.274
991.54	0.278
991.96	0.265
992.39	0.264
992.81	0.270
993.23	0.266
993.65	0.260
994.07	0.264
994.49	0.270
994.91	0.275
995.34	0.264
995.76	0.269
996.18	0.270
996.60	0.260
997.02	0.257
997.44	0.266
997.86	0.258
998.28	0.251
998.70	0.268
999.12	0.262
999.55	0.263
999.97	0.262
1000.39	0.262
1000.81	0.263
1001.23	0.245
1001.65	0.252
1002.07	0.259
1002.49	0.251
1002.91	0.251
1003.33	0.263
1003.75	0.255
1004.17	0.249
1004.59	0.256
1005.01	0.246
1005.43	0.251
1005.85	0.242
1006.28	0.246
1006.70	0.263
1007.12	0.251
1007.54	0.247
1007.96	0.246
1008.38	0.244
1008.80	0.244
1009.22	0.252
1009.64	0.243
1010.06	0.243
1010.48	0.228
1010.90	0.234
1011.32	0.250
1011.74	0.238
1012.16	0.233
1012.58	0.254
1013.00	0.231
1013.42	0.228
1013.84	0.239
1014.26	0.237
1014.67	0.231
1015.09	0.226
1015.51	0.236
1015.93	0.233
1016.35	0.215
1016.77	0.220
1017.19	0.239
1017.61	0.213
1018.03	0.221
1018.45	0.227
1018.87	0.217
1019.29	0.216
1019.71	0.213
1020.13	0.217
1020.55	0.231
1020.97	0.212
1021.38	0.218
1021.80	0.229
1022.22	0.213
1022.64	0.213
1023.06	0.230
1023.48	0.216
1023.90	0.201
1024.32	0.206
1024.74	0.206
1025.15	0.209
1025.57	0.224
1025.99	0.207
1026.41	0.226
1026.83	0.202
1027.25	0.200
1027.67	0.230
1028.08	0.202
1028.50	0.214
1028.92	0.211
1029.34	0.214
1029.76	0.206
1030.18	0.194
1030.60	0.196
1031.01	0.206
1031.43	0.200
1031.85	0.199
1032.27	0.220
1032.69	0.191
1033.10	0.196
1033.52	0.207
1033.94	0.196
1034.36	0.195
1034.78	0.206
1035.19	0.191
1035.61	0.205
1036.03	0.205
1036.45	0.208
1036.87	0.213
1037.28	0.185
1037.70	0.186
1038.12	0.200
1038.54	0.202
1038.95	0.195
1039.37	0.203
1039.79	0.188
1040.21	0.182
1040.62	0.167
1041.04	0.201
1041.46	0.219
1041.88	0.186
1042.29	0.184
1042.71	0.211
1043.13	0.172
1043.55	0.175
1043.96	0.205
1044.38	0.193
1044.80	0.194
1045.21	0.198
1045.63	0.200
1046.05	0.206
1046.47	0.191
1046.88	0.212
1047.30	0.214
1047.72	0.182
1048.13	0.165
1048.55	0.234
1048.97	0.215
1049.38	0.194
1049.80	0.184
1050.22	0.191
1050.63	0.209
1051.05	0.172
1051.47	0.204
1051.88	0.216
1052.30	0.211
1052.72	0.178
1053.13	0.220
1053.55	0.176
1053.97	0.185
1054.38	0.216
1054.80	0.198
1055.21	0.192
1055.63	0.199
1056.05	0.206
1056.46	0.242
1056.88	0.208
1057.29	0.191
1057.71	0.277
1058.13	0.190
1058.54	0.184
1058.96	0.254
1059.37	0.273
1059.79	0.222
1060.21	0.248
1060.62	0.256
1061.04	0.263
1061.45	0.228
1061.87	0.252
1062.28	0.343
1062.70	0.258
1063.12	0.305
1063.53	0.329
1063.95	0.268
1064.36	0.236
1064.78	0.273
1065.19	0.289
1065.61	0.336
1066.02	0.323
1066.44	0.275
1066.85	0.427
1067.27	0.364
1067.68	0.231
1068.10	0.455
1068.51	0.328
1068.93	0.346
1069.35	0.510
1069.76	0.620
1070.17	0.503
1070.59	0.405
1071.00	0.490
1071.42	0.523
1071.83	0.530
1072.25	0.485
1072.66	0.721
1073.08	0.573
1073.49	0.713
1073.91	0.709
1074.32	0.868
1074.74	0.660
1075.15	0.736
1075.57	0.873
1075.98	1.064
1076.40	0.681
1076.81	0.874
1077.22	-0.000
1077.64	0.751
1078.05	1.180
1078.47	-0.000
1078.88	-0.000
1079.30	0.576
1079.71	-0.000
1080.12	-0.000
1080.54	-0.000
1080.95	-0.000
1081.37	-0.000
1081.78	-0.000
1082.19	-0.000
1082.61	-0.000
1083.02	-0.000
1083.44	-0.000
1083.85	-0.000
1084.26	-0.000
1084.68	-0.000
1085.09	-0.000
1085.50	-0.000
1085.92	-0.000
1086.33	-0.000
1086.74	-0.000
1087.16	-0.000
1087.57	-0.000
1087.98	-0.000
1088.40	-0.000
1088.81	-0.000
1089.22	-0.000
1089.64	-0.000
1090.05	-0.000
1090.46	-0.000
1090.88	-0.000
1091.29	-0.000
1091.70	-0.000
1092.12	-0.000
1092.53	-0.000
1092.94	-0.000
1093.36	-0.000
1093.77	-0.000
1094.18	-0.000
1094.59	-0.000
1095.01	-0.000
1095.42	-0.000
1095.83	-0.000
1096.25	-0.000
1096.66	-0.000
1097.07	-0.000
1097.48	-0.000
1097.90	-0.000
1098.31	-0.000
1098.72	-0.000
1099.13	-0.000
>>>>>End Processed Spectral Data<<<<<
