SpectraSuite Data File
++++++++++++++++++++++++++++++++++++
Date: Wed May 04 12:51:32 CEST 2016
User: spectrasuite
Dark Spectrum Present: Yes
Reference Spectrum Present: Yes
Number of Sampled Component Spectra: 1
Spectrometers: HR+C0708
Integration Time (usec): 1000 (HR+C0708)
Spectra Averaged: 10 (HR+C0708)
Boxcar Smoothing: 0 (HR+C0708)
Correct for Electrical Dark: No (HR+C0708)
Strobe/Lamp Enabled: No (HR+C0708)
Correct for Detector Non-linearity: No (HR+C0708)
Correct for Stray Light: No (HR+C0708)
Number of Pixels in Processed Spectrum: 2048
>>>>>Begin Processed Spectral Data<<<<<
188.76	0.617
189.23	-0.000
189.70	0.503
190.17	0.019
190.64	-0.000
191.12	0.501
191.59	-0.669
192.06	-0.000
192.53	-0.000
193.01	0.649
193.48	0.211
193.95	-0.000
194.42	0.278
194.90	0.451
195.37	0.972
195.84	-0.000
196.31	0.459
196.78	0.234
197.26	-0.000
197.73	0.709
198.20	-0.133
198.67	-0.000
199.14	0.729
199.62	1.299
200.09	1.067
200.56	0.689
201.03	0.624
201.50	0.393
201.97	0.461
202.45	0.578
202.92	0.683
203.39	0.401
203.86	0.859
204.33	0.692
204.80	0.565
205.28	0.490
205.75	0.610
206.22	0.447
206.69	0.505
207.16	0.434
207.63	0.654
208.11	0.582
208.58	0.342
209.05	0.924
209.52	0.677
209.99	0.379
210.46	0.398
210.93	0.751
211.41	0.444
211.88	0.547
212.35	0.729
212.82	0.778
213.29	0.713
213.76	0.465
214.23	0.640
214.70	0.492
215.18	0.462
215.65	0.505
216.12	0.440
216.59	0.482
217.06	0.494
217.53	0.584
218.00	0.536
218.47	0.616
218.94	0.595
219.41	0.470
219.89	0.659
220.36	0.470
220.83	0.714
221.30	1.241
221.77	0.598
222.24	0.516
222.71	0.825
223.18	0.846
223.65	0.685
224.12	0.635
224.59	0.653
225.06	0.839
225.54	0.540
226.01	1.341
226.48	1.069
226.95	1.061
227.42	0.874
227.89	1.275
228.36	1.121
228.83	1.034
229.30	1.314
229.77	1.485
230.24	1.202
230.71	1.183
231.18	1.391
231.65	1.611
232.12	1.385
232.59	1.617
233.06	1.637
233.53	1.671
234.00	1.628
234.47	1.958
234.94	2.311
235.41	1.743
235.88	1.768
236.35	1.996
236.82	1.954
237.29	1.738
237.76	2.062
238.23	2.124
238.70	2.109
239.17	2.087
239.64	2.745
240.11	2.279
240.58	2.151
241.05	2.205
241.52	2.321
241.99	2.222
242.46	2.150
242.93	2.181
243.40	2.825
243.87	2.252
244.34	2.241
244.81	2.342
245.28	2.431
245.75	2.253
246.22	2.551
246.69	2.636
247.16	2.449
247.63	2.343
248.10	2.470
248.57	3.006
249.04	2.432
249.51	2.357
249.98	2.733
250.45	2.432
250.92	2.576
251.39	2.468
251.85	2.708
252.32	3.451
252.79	2.480
253.26	2.566
253.73	2.753
254.20	2.422
254.67	2.418
255.14	2.876
255.61	2.492
256.08	2.615
256.55	2.501
257.02	2.951
257.49	2.689
257.95	2.707
258.42	2.631
258.89	3.015
259.36	2.710
259.83	2.781
260.30	2.905
260.77	2.753
261.24	2.531
261.71	2.685
262.17	2.834
262.64	2.966
263.11	2.787
263.58	2.965
264.05	2.879
264.52	2.615
264.99	2.973
265.46	3.160
265.92	2.772
266.39	2.664
266.86	2.936
267.33	2.795
267.80	2.921
268.27	3.002
268.74	3.290
269.20	2.592
269.67	2.719
270.14	2.867
270.61	2.773
271.08	2.543
271.55	2.628
272.01	2.974
272.48	2.555
272.95	2.619
273.42	2.780
273.89	2.703
274.36	2.672
274.82	2.600
275.29	2.702
275.76	2.660
276.23	2.640
276.70	2.600
277.16	3.117
277.63	2.741
278.10	2.578
278.57	2.620
279.04	2.797
279.50	2.771
279.97	2.571
280.44	2.655
280.91	2.900
281.38	2.705
281.84	2.687
282.31	2.750
282.78	2.598
283.25	2.807
283.72	2.708
284.18	2.616
284.65	2.699
285.12	2.710
285.59	2.600
286.05	2.753
286.52	2.452
286.99	2.709
287.46	2.886
287.92	2.595
288.39	2.529
288.86	2.805
289.33	2.720
289.79	2.543
290.26	2.710
290.73	2.671
291.20	2.623
291.66	2.524
292.13	2.555
292.60	2.841
293.07	2.486
293.53	2.669
294.00	2.624
294.47	2.607
294.93	2.564
295.40	2.853
295.87	2.766
296.34	2.648
296.80	2.449
297.27	2.454
297.74	2.779
298.20	2.496
298.67	2.459
299.14	2.606
299.60	2.480
300.07	2.571
300.54	2.687
301.01	2.610
301.47	2.517
301.94	2.333
302.41	2.476
302.87	2.525
303.34	2.579
303.81	2.376
304.27	2.482
304.74	2.341
305.21	2.378
305.67	2.545
306.14	2.471
306.61	2.447
307.07	2.482
307.54	2.591
308.01	2.483
308.47	2.419
308.94	2.394
309.40	2.568
309.87	2.387
310.34	2.378
310.80	2.366
311.27	2.323
311.74	2.347
312.20	2.588
312.67	2.609
313.13	2.566
313.60	2.470
314.07	2.437
314.53	2.484
315.00	2.348
315.47	2.423
315.93	2.479
316.40	2.420
316.86	2.362
317.33	2.465
317.80	2.461
318.26	2.394
318.73	2.309
319.19	2.387
319.66	2.418
320.13	2.297
320.59	2.206
321.06	2.452
321.52	2.266
321.99	2.325
322.45	2.343
322.92	2.323
323.39	2.282
323.85	2.276
324.32	2.341
324.78	2.253
325.25	2.162
325.71	2.273
326.18	2.221
326.64	2.229
327.11	2.206
327.58	2.211
328.04	2.216
328.51	2.109
328.97	2.256
329.44	2.246
329.90	2.220
330.37	2.146
330.83	2.199
331.30	2.202
331.76	2.077
332.23	2.143
332.69	2.192
333.16	2.203
333.62	2.122
334.09	2.137
334.56	2.156
335.02	2.152
335.49	2.109
335.95	2.206
336.42	2.129
336.88	2.054
337.35	2.043
337.81	2.091
338.28	2.082
338.74	2.059
339.20	2.131
339.67	2.141
340.13	2.116
340.60	2.059
341.06	2.115
341.53	2.180
341.99	2.040
342.46	2.082
342.92	2.162
343.39	2.046
343.85	2.061
344.32	2.021
344.78	2.096
345.25	2.012
345.71	1.976
346.17	2.032
346.64	1.974
347.10	1.950
347.57	1.960
348.03	1.938
348.50	1.854
348.96	1.877
349.43	1.947
349.89	1.857
350.35	1.796
350.82	1.729
351.28	1.755
351.75	1.698
352.21	1.649
352.67	1.627
353.14	1.663
353.60	1.600
354.07	1.536
354.53	1.548
355.00	1.490
355.46	1.468
355.92	1.449
356.39	1.410
356.85	1.354
357.31	1.286
357.78	1.238
358.24	1.199
358.71	1.124
359.17	1.078
359.63	1.024
360.10	0.946
360.56	0.889
361.03	0.830
361.49	0.776
361.95	0.713
362.42	0.659
362.88	0.614
363.34	0.570
363.81	0.520
364.27	0.479
364.73	0.446
365.20	0.411
365.66	0.385
366.12	0.358
366.59	0.337
367.05	0.319
367.51	0.297
367.98	0.283
368.44	0.271
368.90	0.256
369.37	0.245
369.83	0.239
370.29	0.227
370.76	0.221
371.22	0.213
371.68	0.209
372.15	0.205
372.61	0.199
373.07	0.198
373.54	0.193
374.00	0.189
374.46	0.187
374.92	0.187
375.39	0.182
375.85	0.182
376.31	0.180
376.78	0.179
377.24	0.179
377.70	0.177
378.16	0.173
378.63	0.174
379.09	0.174
379.55	0.172
380.01	0.172
380.48	0.169
380.94	0.168
381.40	0.167
381.87	0.167
382.33	0.164
382.79	0.161
383.25	0.160
383.72	0.164
384.18	0.160
384.64	0.160
385.10	0.158
385.56	0.155
386.03	0.158
386.49	0.155
386.95	0.154
387.41	0.157
387.88	0.153
388.34	0.149
388.80	0.154
389.26	0.153
389.72	0.151
390.19	0.148
390.65	0.146
391.11	0.147
391.57	0.146
392.04	0.148
392.50	0.148
392.96	0.146
393.42	0.141
393.88	0.144
394.34	0.142
394.81	0.144
395.27	0.141
395.73	0.138
396.19	0.139
396.65	0.140
397.12	0.137
397.58	0.138
398.04	0.140
398.50	0.138
398.96	0.135
399.42	0.137
399.89	0.136
400.35	0.134
400.81	0.134
401.27	0.135
401.73	0.135
402.19	0.132
402.65	0.130
403.12	0.132
403.58	0.130
404.04	0.130
404.50	0.128
404.96	0.128
405.42	0.131
405.88	0.127
406.34	0.128
406.81	0.128
407.27	0.126
407.73	0.121
408.19	0.126
408.65	0.124
409.11	0.122
409.57	0.123
410.03	0.124
410.49	0.122
410.96	0.121
411.42	0.121
411.88	0.118
412.34	0.119
412.80	0.120
413.26	0.123
413.72	0.119
414.18	0.117
414.64	0.119
415.10	0.116
415.56	0.117
416.02	0.115
416.48	0.117
416.95	0.116
417.41	0.117
417.87	0.117
418.33	0.117
418.79	0.114
419.25	0.116
419.71	0.115
420.17	0.111
420.63	0.113
421.09	0.112
421.55	0.111
422.01	0.111
422.47	0.111
422.93	0.115
423.39	0.111
423.85	0.109
424.31	0.111
424.77	0.111
425.23	0.110
425.69	0.112
426.15	0.110
426.61	0.111
427.07	0.108
427.53	0.108
427.99	0.107
428.45	0.111
428.91	0.109
429.37	0.108
429.83	0.107
430.29	0.105
430.75	0.107
431.21	0.107
431.67	0.106
432.13	0.105
432.59	0.102
433.05	0.107
433.51	0.104
433.97	0.102
434.43	0.106
434.89	0.105
435.35	0.101
435.81	0.101
436.27	0.104
436.73	0.101
437.19	0.105
437.65	0.099
438.11	0.101
438.57	0.103
439.03	0.101
439.48	0.101
439.94	0.103
440.40	0.100
440.86	0.102
441.32	0.101
441.78	0.099
442.24	0.102
442.70	0.101
443.16	0.101
443.62	0.100
444.08	0.099
444.54	0.099
444.99	0.101
445.45	0.098
445.91	0.098
446.37	0.099
446.83	0.098
447.29	0.097
447.75	0.099
448.21	0.101
448.67	0.097
449.12	0.099
449.58	0.094
450.04	0.101
450.50	0.094
450.96	0.093
451.42	0.099
451.88	0.098
452.34	0.093
452.79	0.094
453.25	0.094
453.71	0.094
454.17	0.094
454.63	0.096
455.09	0.095
455.55	0.096
456.00	0.091
456.46	0.097
456.92	0.096
457.38	0.094
457.84	0.096
458.30	0.096
458.75	0.095
459.21	0.094
459.67	0.093
460.13	0.096
460.59	0.094
461.04	0.095
461.50	0.093
461.96	0.095
462.42	0.093
462.88	0.091
463.33	0.091
463.79	0.092
464.25	0.089
464.71	0.091
465.17	0.091
465.62	0.089
466.08	0.089
466.54	0.091
467.00	0.088
467.46	0.089
467.91	0.090
468.37	0.089
468.83	0.089
469.29	0.088
469.74	0.090
470.20	0.090
470.66	0.088
471.12	0.089
471.57	0.090
472.03	0.089
472.49	0.089
472.95	0.090
473.40	0.090
473.86	0.088
474.32	0.085
474.78	0.087
475.23	0.089
475.69	0.087
476.15	0.091
476.60	0.088
477.06	0.087
477.52	0.084
477.98	0.089
478.43	0.088
478.89	0.087
479.35	0.089
479.80	0.086
480.26	0.084
480.72	0.086
481.18	0.086
481.63	0.089
482.09	0.087
482.55	0.086
483.00	0.085
483.46	0.085
483.92	0.083
484.37	0.085
484.83	0.083
485.29	0.085
485.74	0.084
486.20	0.084
486.66	0.083
487.11	0.083
487.57	0.083
488.03	0.082
488.48	0.085
488.94	0.082
489.40	0.083
489.85	0.082
490.31	0.083
490.77	0.082
491.22	0.084
491.68	0.082
492.13	0.082
492.59	0.084
493.05	0.082
493.50	0.081
493.96	0.080
494.42	0.082
494.87	0.083
495.33	0.080
495.78	0.080
496.24	0.083
496.70	0.083
497.15	0.081
497.61	0.082
498.06	0.081
498.52	0.081
498.98	0.081
499.43	0.082
499.89	0.081
500.34	0.079
500.80	0.082
501.25	0.081
501.71	0.077
502.17	0.078
502.62	0.079
503.08	0.077
503.53	0.079
503.99	0.080
504.44	0.079
504.90	0.077
505.36	0.080
505.81	0.081
506.27	0.079
506.72	0.077
507.18	0.079
507.63	0.077
508.09	0.080
508.54	0.077
509.00	0.078
509.45	0.077
509.91	0.078
510.36	0.077
510.82	0.079
511.27	0.075
511.73	0.077
512.19	0.077
512.64	0.073
513.10	0.077
513.55	0.075
514.01	0.076
514.46	0.078
514.92	0.077
515.37	0.078
515.83	0.076
516.28	0.077
516.73	0.076
517.19	0.076
517.64	0.077
518.10	0.077
518.55	0.077
519.01	0.075
519.46	0.074
519.92	0.075
520.37	0.072
520.83	0.076
521.28	0.075
521.74	0.076
522.19	0.076
522.65	0.075
523.10	0.074
523.55	0.076
524.01	0.074
524.46	0.075
524.92	0.073
525.37	0.076
525.83	0.076
526.28	0.076
526.73	0.075
527.19	0.074
527.64	0.074
528.10	0.074
528.55	0.074
529.01	0.073
529.46	0.073
529.91	0.073
530.37	0.072
530.82	0.072
531.28	0.074
531.73	0.071
532.18	0.075
532.64	0.073
533.09	0.073
533.54	0.071
534.00	0.073
534.45	0.074
534.91	0.072
535.36	0.073
535.81	0.072
536.27	0.071
536.72	0.071
537.17	0.073
537.63	0.071
538.08	0.073
538.54	0.072
538.99	0.073
539.44	0.071
539.90	0.072
540.35	0.070
540.80	0.071
541.26	0.073
541.71	0.075
542.16	0.072
542.62	0.075
543.07	0.074
543.52	0.073
543.98	0.073
544.43	0.073
544.88	0.073
545.34	0.073
545.79	0.072
546.24	0.072
546.69	0.073
547.15	0.073
547.60	0.071
548.05	0.074
548.51	0.072
548.96	0.074
549.41	0.070
549.86	0.073
550.32	0.073
550.77	0.072
551.22	0.072
551.68	0.072
552.13	0.073
552.58	0.073
553.03	0.073
553.49	0.071
553.94	0.070
554.39	0.073
554.84	0.074
555.30	0.072
555.75	0.075
556.20	0.073
556.65	0.073
557.11	0.074
557.56	0.073
558.01	0.073
558.46	0.073
558.92	0.073
559.37	0.074
559.82	0.074
560.27	0.074
560.72	0.074
561.18	0.074
561.63	0.074
562.08	0.074
562.53	0.073
562.99	0.074
563.44	0.074
563.89	0.074
564.34	0.075
564.79	0.076
565.25	0.075
565.70	0.074
566.15	0.074
566.60	0.074
567.05	0.075
567.50	0.076
567.96	0.076
568.41	0.076
568.86	0.077
569.31	0.075
569.76	0.077
570.21	0.077
570.67	0.074
571.12	0.075
571.57	0.077
572.02	0.079
572.47	0.076
572.92	0.077
573.37	0.080
573.83	0.076
574.28	0.078
574.73	0.078
575.18	0.079
575.63	0.076
576.08	0.078
576.53	0.078
576.98	0.080
577.44	0.079
577.89	0.077
578.34	0.079
578.79	0.080
579.24	0.079
579.69	0.078
580.14	0.080
580.59	0.079
581.04	0.080
581.49	0.079
581.95	0.079
582.40	0.082
582.85	0.082
583.30	0.080
583.75	0.082
584.20	0.080
584.65	0.083
585.10	0.084
585.55	0.084
586.00	0.083
586.45	0.084
586.90	0.086
587.35	0.084
587.80	0.083
588.25	0.085
588.71	0.085
589.16	0.088
589.61	0.086
590.06	0.088
590.51	0.088
590.96	0.089
591.41	0.089
591.86	0.088
592.31	0.089
592.76	0.091
593.21	0.089
593.66	0.091
594.11	0.091
594.56	0.092
595.01	0.094
595.46	0.093
595.91	0.093
596.36	0.095
596.81	0.097
597.26	0.095
597.71	0.095
598.16	0.097
598.61	0.097
599.06	0.096
599.51	0.096
599.96	0.098
600.41	0.099
600.86	0.100
601.31	0.098
601.76	0.101
602.21	0.103
602.65	0.102
603.10	0.101
603.55	0.103
604.00	0.104
604.45	0.103
604.90	0.102
605.35	0.106
605.80	0.104
606.25	0.104
606.70	0.106
607.15	0.106
607.60	0.107
608.05	0.107
608.50	0.107
608.95	0.108
609.39	0.108
609.84	0.109
610.29	0.109
610.74	0.108
611.19	0.109
611.64	0.109
612.09	0.111
612.54	0.110
612.99	0.109
613.44	0.110
613.88	0.109
614.33	0.109
614.78	0.111
615.23	0.112
615.68	0.111
616.13	0.111
616.58	0.111
617.03	0.112
617.47	0.112
617.92	0.114
618.37	0.114
618.82	0.113
619.27	0.113
619.72	0.113
620.17	0.112
620.61	0.113
621.06	0.114
621.51	0.112
621.96	0.112
622.41	0.113
622.86	0.113
623.30	0.114
623.75	0.113
624.20	0.115
624.65	0.113
625.10	0.114
625.54	0.114
625.99	0.113
626.44	0.115
626.89	0.114
627.34	0.114
627.78	0.115
628.23	0.115
628.68	0.114
629.13	0.114
629.58	0.116
630.02	0.116
630.47	0.118
630.92	0.116
631.37	0.118
631.81	0.120
632.26	0.118
632.71	0.119
633.16	0.121
633.61	0.119
634.05	0.120
634.50	0.119
634.95	0.120
635.40	0.124
635.84	0.124
636.29	0.124
636.74	0.125
637.18	0.125
637.63	0.126
638.08	0.125
638.53	0.127
638.97	0.127
639.42	0.129
639.87	0.127
640.32	0.130
640.76	0.131
641.21	0.130
641.66	0.132
642.10	0.133
642.55	0.133
643.00	0.136
643.44	0.136
643.89	0.137
644.34	0.139
644.79	0.140
645.23	0.141
645.68	0.140
646.13	0.141
646.57	0.143
647.02	0.145
647.47	0.146
647.91	0.147
648.36	0.147
648.81	0.147
649.25	0.148
649.70	0.149
650.15	0.150
650.59	0.152
651.04	0.151
651.48	0.153
651.93	0.156
652.38	0.156
652.82	0.156
653.27	0.153
653.72	0.157
654.16	0.159
654.61	0.160
655.06	0.160
655.50	0.161
655.95	0.160
656.39	0.160
656.84	0.160
657.29	0.163
657.73	0.164
658.18	0.165
658.62	0.166
659.07	0.168
659.52	0.167
659.96	0.170
660.41	0.170
660.85	0.169
661.30	0.169
661.74	0.169
662.19	0.170
662.64	0.172
663.08	0.169
663.53	0.170
663.97	0.172
664.42	0.171
664.86	0.171
665.31	0.173
665.75	0.171
666.20	0.171
666.65	0.171
667.09	0.172
667.54	0.172
667.98	0.169
668.43	0.168
668.87	0.169
669.32	0.169
669.76	0.166
670.21	0.167
670.65	0.165
671.10	0.164
671.54	0.164
671.99	0.164
672.43	0.160
672.88	0.159
673.32	0.158
673.77	0.157
674.21	0.155
674.66	0.151
675.10	0.150
675.55	0.146
675.99	0.146
676.44	0.145
676.88	0.142
677.33	0.139
677.77	0.136
678.22	0.134
678.66	0.132
679.11	0.130
679.55	0.127
679.99	0.124
680.44	0.123
680.88	0.119
681.33	0.117
681.77	0.114
682.22	0.109
682.66	0.110
683.11	0.105
683.55	0.107
683.99	0.103
684.44	0.102
684.88	0.099
685.33	0.097
685.77	0.092
686.21	0.095
686.66	0.091
687.10	0.086
687.55	0.087
687.99	0.085
688.44	0.084
688.88	0.079
689.32	0.079
689.77	0.078
690.21	0.077
690.65	0.074
691.10	0.072
691.54	0.073
691.99	0.071
692.43	0.070
692.87	0.070
693.32	0.069
693.76	0.065
694.20	0.064
694.65	0.064
695.09	0.064
695.53	0.061
695.98	0.060
696.42	0.060
696.86	0.059
697.31	0.059
697.75	0.057
698.19	0.059
698.64	0.054
699.08	0.053
699.52	0.054
699.97	0.055
700.41	0.053
700.85	0.054
701.30	0.052
701.74	0.052
702.18	0.051
702.63	0.051
703.07	0.050
703.51	0.051
703.96	0.050
704.40	0.051
704.84	0.050
705.28	0.049
705.73	0.051
706.17	0.047
706.61	0.050
707.06	0.049
707.50	0.049
707.94	0.049
708.38	0.048
708.83	0.048
709.27	0.048
709.71	0.047
710.15	0.045
710.60	0.049
711.04	0.045
711.48	0.047
711.92	0.047
712.37	0.046
712.81	0.046
713.25	0.048
713.69	0.046
714.13	0.046
714.58	0.047
715.02	0.045
715.46	0.045
715.90	0.048
716.35	0.044
716.79	0.046
717.23	0.048
717.67	0.045
718.11	0.044
718.56	0.045
719.00	0.046
719.44	0.046
719.88	0.046
720.32	0.048
720.76	0.044
721.21	0.046
721.65	0.046
722.09	0.045
722.53	0.046
722.97	0.046
723.41	0.045
723.86	0.047
724.30	0.047
724.74	0.048
725.18	0.044
725.62	0.047
726.06	0.047
726.50	0.049
726.95	0.048
727.39	0.048
727.83	0.047
728.27	0.047
728.71	0.047
729.15	0.048
729.59	0.044
730.03	0.048
730.48	0.048
730.92	0.048
731.36	0.046
731.80	0.048
732.24	0.051
732.68	0.048
733.12	0.048
733.56	0.049
734.00	0.052
734.44	0.048
734.89	0.050
735.33	0.048
735.77	0.050
736.21	0.048
736.65	0.049
737.09	0.050
737.53	0.052
737.97	0.050
738.41	0.050
738.85	0.051
739.29	0.051
739.73	0.053
740.17	0.050
740.61	0.048
741.05	0.053
741.49	0.051
741.93	0.050
742.37	0.050
742.81	0.051
743.26	0.051
743.70	0.049
744.14	0.050
744.58	0.049
745.02	0.051
745.46	0.051
745.90	0.046
746.34	0.049
746.78	0.050
747.22	0.051
747.66	0.049
748.10	0.049
748.54	0.049
748.98	0.049
749.42	0.050
749.86	0.050
750.29	0.048
750.73	0.052
751.17	0.052
751.61	0.050
752.05	0.047
752.49	0.050
752.93	0.049
753.37	0.053
753.81	0.050
754.25	0.049
754.69	0.050
755.13	0.051
755.57	0.049
756.01	0.050
756.45	0.047
756.89	0.049
757.33	0.048
757.77	0.048
758.21	0.048
758.64	0.046
759.08	0.048
759.52	0.051
759.96	0.051
760.40	0.050
760.84	0.047
761.28	0.047
761.72	0.048
762.16	0.047
762.60	0.049
763.03	0.049
763.47	0.049
763.91	0.048
764.35	0.048
764.79	0.048
765.23	0.049
765.67	0.047
766.11	0.050
766.54	0.047
766.98	0.047
767.42	0.049
767.86	0.050
768.30	0.045
768.74	0.044
769.17	0.049
769.61	0.045
770.05	0.047
770.49	0.053
770.93	0.046
771.37	0.049
771.80	0.047
772.24	0.045
772.68	0.046
773.12	0.047
773.56	0.047
774.00	0.046
774.43	0.046
774.87	0.045
775.31	0.049
775.75	0.045
776.19	0.046
776.62	0.048
777.06	0.045
777.50	0.048
777.94	0.045
778.37	0.048
778.81	0.046
779.25	0.046
779.69	0.044
780.13	0.048
780.56	0.043
781.00	0.046
781.44	0.046
781.88	0.044
782.31	0.046
782.75	0.044
783.19	0.045
783.63	0.048
784.06	0.046
784.50	0.047
784.94	0.047
785.37	0.044
785.81	0.045
786.25	0.044
786.69	0.045
787.12	0.046
787.56	0.046
788.00	0.043
788.43	0.046
788.87	0.049
789.31	0.046
789.75	0.044
790.18	0.046
790.62	0.043
791.06	0.046
791.49	0.048
791.93	0.046
792.37	0.042
792.80	0.047
793.24	0.045
793.68	0.047
794.11	0.047
794.55	0.045
794.99	0.043
795.42	0.046
795.86	0.048
796.30	0.045
796.73	0.046
797.17	0.042
797.61	0.045
798.04	0.046
798.48	0.046
798.91	0.046
799.35	0.043
799.79	0.043
800.22	0.048
800.66	0.042
801.10	0.046
801.53	0.047
801.97	0.046
802.40	0.041
802.84	0.045
803.28	0.044
803.71	0.042
804.15	0.046
804.58	0.046
805.02	0.047
805.46	0.044
805.89	0.042
806.33	0.046
806.76	0.041
807.20	0.046
807.63	0.044
808.07	0.043
808.51	0.043
808.94	0.043
809.38	0.043
809.81	0.047
810.25	0.044
810.68	0.045
811.12	0.041
811.55	0.044
811.99	0.046
812.42	0.044
812.86	0.046
813.29	0.046
813.73	0.047
814.17	0.039
814.60	0.041
815.04	0.044
815.47	0.043
815.91	0.042
816.34	0.043
816.78	0.048
817.21	0.047
817.65	0.049
818.08	0.042
818.52	0.043
818.95	0.047
819.39	0.046
819.82	0.042
820.25	0.047
820.69	0.042
821.12	0.048
821.56	0.044
821.99	0.049
822.43	0.046
822.86	0.044
823.30	0.043
823.73	0.043
824.17	0.045
824.60	0.044
825.04	0.047
825.47	0.043
825.90	0.045
826.34	0.051
826.77	0.045
827.21	0.048
827.64	0.046
828.08	0.049
828.51	0.045
828.94	0.048
829.38	0.047
829.81	0.052
830.25	0.050
830.68	0.050
831.11	0.047
831.55	0.049
831.98	0.053
832.42	0.048
832.85	0.050
833.28	0.053
833.72	0.053
834.15	0.051
834.58	0.049
835.02	0.048
835.45	0.047
835.88	0.053
836.32	0.054
836.75	0.054
837.19	0.050
837.62	0.046
838.05	0.053
838.49	0.051
838.92	0.051
839.35	0.052
839.79	0.048
840.22	0.048
840.65	0.051
841.09	0.050
841.52	0.053
841.95	0.053
842.39	0.049
842.82	0.054
843.25	0.054
843.68	0.053
844.12	0.055
844.55	0.052
844.98	0.053
845.42	0.050
845.85	0.049
846.28	0.056
846.71	0.049
847.15	0.046
847.58	0.054
848.01	0.052
848.45	0.053
848.88	0.055
849.31	0.050
849.74	0.053
850.18	0.052
850.61	0.059
851.04	0.054
851.47	0.052
851.91	0.050
852.34	0.056
852.77	0.050
853.20	0.059
853.64	0.057
854.07	0.053
854.50	0.052
854.93	0.050
855.36	0.053
855.80	0.050
856.23	0.057
856.66	0.053
857.09	0.058
857.52	0.056
857.96	0.051
858.39	0.055
858.82	0.056
859.25	0.054
859.68	0.056
860.12	0.054
860.55	0.059
860.98	0.059
861.41	0.057
861.84	0.059
862.27	0.057
862.71	0.053
863.14	0.055
863.57	0.059
864.00	0.053
864.43	0.055
864.86	0.057
865.30	0.053
865.73	0.056
866.16	0.053
866.59	0.063
867.02	0.054
867.45	0.057
867.88	0.056
868.31	0.058
868.75	0.054
869.18	0.055
869.61	0.058
870.04	0.058
870.47	0.058
870.90	0.060
871.33	0.061
871.76	0.058
872.19	0.051
872.62	0.061
873.06	0.064
873.49	0.054
873.92	0.062
874.35	0.060
874.78	0.065
875.21	0.058
875.64	0.057
876.07	0.066
876.50	0.061
876.93	0.058
877.36	0.060
877.79	0.057
878.22	0.050
878.65	0.059
879.08	0.064
879.51	0.056
879.94	0.061
880.37	0.062
880.80	0.060
881.23	0.063
881.67	0.059
882.10	0.069
882.53	0.063
882.96	0.066
883.39	0.068
883.82	0.065
884.25	0.066
884.68	0.060
885.11	0.063
885.54	0.071
885.97	0.058
886.39	0.055
886.82	0.062
887.25	0.064
887.68	0.066
888.11	0.060
888.54	0.061
888.97	0.061
889.40	0.065
889.83	0.069
890.26	0.068
890.69	0.061
891.12	0.061
891.55	0.066
891.98	0.066
892.41	0.068
892.84	0.071
893.27	0.069
893.70	0.068
894.13	0.067
894.56	0.068
894.98	0.069
895.41	0.065
895.84	0.073
896.27	0.063
896.70	0.070
897.13	0.064
897.56	0.069
897.99	0.068
898.42	0.067
898.85	0.072
899.27	0.071
899.70	0.071
900.13	0.073
900.56	0.069
900.99	0.072
901.42	0.069
901.85	0.070
902.28	0.077
902.70	0.069
903.13	0.070
903.56	0.078
903.99	0.069
904.42	0.075
904.85	0.074
905.27	0.070
905.70	0.072
906.13	0.069
906.56	0.071
906.99	0.074
907.42	0.068
907.84	0.070
908.27	0.076
908.70	0.071
909.13	0.069
909.56	0.071
909.98	0.071
910.41	0.076
910.84	0.068
911.27	0.069
911.70	0.072
912.12	0.069
912.55	0.070
912.98	0.070
913.41	0.071
913.84	0.067
914.26	0.071
914.69	0.068
915.12	0.071
915.55	0.068
915.97	0.070
916.40	0.074
916.83	0.069
917.26	0.072
917.68	0.075
918.11	0.076
918.54	0.071
918.97	0.075
919.39	0.076
919.82	0.075
920.25	0.073
920.67	0.069
921.10	0.075
921.53	0.074
921.96	0.075
922.38	0.075
922.81	0.075
923.24	0.077
923.66	0.077
924.09	0.075
924.52	0.080
924.94	0.076
925.37	0.082
925.80	0.079
926.22	0.082
926.65	0.081
927.08	0.079
927.50	0.085
927.93	0.081
928.36	0.084
928.78	0.084
929.21	0.085
929.64	0.088
930.06	0.088
930.49	0.089
930.92	0.087
931.34	0.087
931.77	0.089
932.20	0.089
932.62	0.087
933.05	0.089
933.47	0.092
933.90	0.094
934.33	0.098
934.75	0.091
935.18	0.098
935.61	0.099
936.03	0.098
936.46	0.100
936.88	0.100
937.31	0.101
937.73	0.107
938.16	0.107
938.59	0.111
939.01	0.116
939.44	0.115
939.86	0.113
940.29	0.113
940.71	0.117
941.14	0.115
941.57	0.121
941.99	0.119
942.42	0.126
942.84	0.119
943.27	0.113
943.69	0.129
944.12	0.133
944.54	0.127
944.97	0.124
945.39	0.132
945.82	0.140
946.24	0.128
946.67	0.139
947.09	0.144
947.52	0.144
947.94	0.142
948.37	0.147
948.79	0.150
949.22	0.153
949.64	0.154
950.07	0.156
950.49	0.162
950.92	0.163
951.34	0.162
951.77	0.169
952.19	0.165
952.62	0.166
953.04	0.180
953.47	0.178
953.89	0.181
954.32	0.183
954.74	0.190
955.17	0.186
955.59	0.191
956.01	0.198
956.44	0.199
956.86	0.193
957.29	0.198
957.71	0.206
958.14	0.204
958.56	0.213
958.98	0.218
959.41	0.213
959.83	0.216
960.26	0.220
960.68	0.223
961.10	0.223
961.53	0.223
961.95	0.221
962.38	0.229
962.80	0.227
963.22	0.224
963.65	0.226
964.07	0.227
964.50	0.225
964.92	0.232
965.34	0.232
965.77	0.232
966.19	0.231
966.61	0.227
967.04	0.237
967.46	0.230
967.88	0.225
968.31	0.234
968.73	0.231
969.15	0.229
969.58	0.238
970.00	0.238
970.42	0.241
970.85	0.236
971.27	0.238
971.69	0.237
972.12	0.231
972.54	0.235
972.96	0.239
973.39	0.236
973.81	0.234
974.23	0.244
974.65	0.240
975.08	0.236
975.50	0.237
975.92	0.242
976.35	0.236
976.77	0.237
977.19	0.238
977.61	0.238
978.04	0.237
978.46	0.232
978.88	0.239
979.30	0.243
979.73	0.242
980.15	0.242
980.57	0.241
980.99	0.243
981.42	0.239
981.84	0.240
982.26	0.242
982.68	0.242
983.11	0.237
983.53	0.244
983.95	0.239
984.37	0.236
984.79	0.231
985.22	0.239
985.64	0.237
986.06	0.229
986.48	0.236
986.90	0.236
987.33	0.232
987.75	0.231
988.17	0.247
988.59	0.234
989.01	0.220
989.43	0.233
989.86	0.238
990.28	0.231
990.70	0.238
991.12	0.228
991.54	0.237
991.96	0.234
992.39	0.219
992.81	0.232
993.23	0.225
993.65	0.226
994.07	0.224
994.49	0.228
994.91	0.221
995.34	0.226
995.76	0.225
996.18	0.221
996.60	0.219
997.02	0.223
997.44	0.226
997.86	0.225
998.28	0.212
998.70	0.217
999.12	0.219
999.55	0.215
999.97	0.220
1000.39	0.212
1000.81	0.212
1001.23	0.206
1001.65	0.210
1002.07	0.217
1002.49	0.212
1002.91	0.208
1003.33	0.214
1003.75	0.212
1004.17	0.206
1004.59	0.219
1005.01	0.210
1005.43	0.198
1005.85	0.207
1006.28	0.200
1006.70	0.202
1007.12	0.199
1007.54	0.204
1007.96	0.206
1008.38	0.197
1008.80	0.199
1009.22	0.198
1009.64	0.196
1010.06	0.197
1010.48	0.198
1010.90	0.194
1011.32	0.203
1011.74	0.188
1012.16	0.186
1012.58	0.201
1013.00	0.191
1013.42	0.179
1013.84	0.191
1014.26	0.180
1014.67	0.182
1015.09	0.186
1015.51	0.186
1015.93	0.192
1016.35	0.169
1016.77	0.180
1017.19	0.184
1017.61	0.173
1018.03	0.166
1018.45	0.178
1018.87	0.171
1019.29	0.171
1019.71	0.163
1020.13	0.177
1020.55	0.172
1020.97	0.160
1021.38	0.166
1021.80	0.176
1022.22	0.173
1022.64	0.154
1023.06	0.178
1023.48	0.164
1023.90	0.163
1024.32	0.161
1024.74	0.159
1025.15	0.166
1025.57	0.162
1025.99	0.157
1026.41	0.167
1026.83	0.164
1027.25	0.163
1027.67	0.167
1028.08	0.154
1028.50	0.155
1028.92	0.154
1029.34	0.162
1029.76	0.148
1030.18	0.149
1030.60	0.162
1031.01	0.153
1031.43	0.134
1031.85	0.142
1032.27	0.152
1032.69	0.132
1033.10	0.139
1033.52	0.150
1033.94	0.147
1034.36	0.147
1034.78	0.141
1035.19	0.139
1035.61	0.147
1036.03	0.131
1036.45	0.141
1036.87	0.149
1037.28	0.132
1037.70	0.134
1038.12	0.126
1038.54	0.131
1038.95	0.124
1039.37	0.130
1039.79	0.136
1040.21	0.130
1040.62	0.102
1041.04	0.127
1041.46	0.152
1041.88	0.144
1042.29	0.118
1042.71	0.145
1043.13	0.128
1043.55	0.118
1043.96	0.124
1044.38	0.127
1044.80	0.144
1045.21	0.123
1045.63	0.120
1046.05	0.123
1046.47	0.119
1046.88	0.122
1047.30	0.132
1047.72	0.124
1048.13	0.103
1048.55	0.146
1048.97	0.131
1049.38	0.106
1049.80	0.101
1050.22	0.126
1050.63	0.138
1051.05	0.097
1051.47	0.124
1051.88	0.145
1052.30	0.122
1052.72	0.106
1053.13	0.130
1053.55	0.121
1053.97	0.090
1054.38	0.127
1054.80	0.122
1055.21	0.127
1055.63	0.090
1056.05	0.085
1056.46	0.129
1056.88	0.123
1057.29	0.085
1057.71	0.148
1058.13	0.133
1058.54	0.098
1058.96	0.096
1059.37	0.127
1059.79	0.112
1060.21	0.129
1060.62	0.095
1061.04	0.144
1061.45	0.144
1061.87	0.132
1062.28	0.165
1062.70	0.131
1063.12	0.131
1063.53	0.152
1063.95	0.170
1064.36	0.114
1064.78	0.073
1065.19	0.106
1065.61	0.205
1066.02	0.102
1066.44	0.092
1066.85	0.218
1067.27	0.112
1067.68	0.076
1068.10	0.121
1068.51	0.142
1068.93	0.067
1069.35	0.152
1069.76	0.169
1070.17	0.172
1070.59	0.058
1071.00	0.135
1071.42	0.160
1071.83	0.143
1072.25	0.092
1072.66	0.190
1073.08	0.145
1073.49	0.144
1073.91	0.194
1074.32	0.207
1074.74	0.190
1075.15	0.134
1075.57	0.155
1075.98	0.172
1076.40	0.268
1076.81	0.148
1077.22	0.545
1077.64	0.165
1078.05	0.171
1078.47	0.153
1078.88	0.114
1079.30	0.170
1079.71	0.134
1080.12	0.133
1080.54	0.309
1080.95	0.179
1081.37	0.086
1081.78	0.613
1082.19	0.239
1082.61	0.091
1083.02	0.358
1083.44	0.530
1083.85	0.124
1084.26	-0.014
1084.68	0.512
1085.09	0.511
1085.50	0.119
1085.92	0.063
1086.33	-0.000
1086.74	0.413
1087.16	0.170
1087.57	0.971
1087.98	1.362
1088.40	0.103
1088.81	-0.000
1089.22	0.254
1089.64	0.142
1090.05	0.573
1090.46	0.486
1090.88	-0.000
1091.29	0.465
1091.70	0.157
1092.12	-0.000
1092.53	0.822
1092.94	0.171
1093.36	0.968
1093.77	-0.000
1094.18	0.125
1094.59	-0.000
1095.01	0.347
1095.42	-0.000
1095.83	0.843
1096.25	0.308
1096.66	0.869
1097.07	0.625
1097.48	0.285
1097.90	-0.000
1098.31	-0.000
1098.72	0.597
1099.13	0.264
>>>>>End Processed Spectral Data<<<<<
