SpectraSuite Data File
++++++++++++++++++++++++++++++++++++
Date: Wed May 04 12:55:34 CEST 2016
User: spectrasuite
Dark Spectrum Present: Yes
Reference Spectrum Present: Yes
Number of Sampled Component Spectra: 1
Spectrometers: HR+C0708
Integration Time (usec): 1000 (HR+C0708)
Spectra Averaged: 10 (HR+C0708)
Boxcar Smoothing: 0 (HR+C0708)
Correct for Electrical Dark: No (HR+C0708)
Strobe/Lamp Enabled: No (HR+C0708)
Correct for Detector Non-linearity: No (HR+C0708)
Correct for Stray Light: No (HR+C0708)
Number of Pixels in Processed Spectrum: 2048
>>>>>Begin Processed Spectral Data<<<<<
188.76	0.005
189.23	-0.000
189.70	0.261
190.17	0.068
190.64	-0.000
191.12	0.422
191.59	-1.186
192.06	0.826
192.53	1.431
193.01	0.100
193.48	0.273
193.95	-0.000
194.42	0.689
194.90	0.716
195.37	-0.000
195.84	-0.000
196.31	0.426
196.78	1.217
197.26	0.785
197.73	0.477
198.20	0.158
198.67	0.523
199.14	1.595
199.62	0.529
200.09	0.766
200.56	0.753
201.03	1.047
201.50	0.525
201.97	0.478
202.45	0.560
202.92	0.537
203.39	0.659
203.86	0.534
204.33	0.611
204.80	0.582
205.28	0.479
205.75	0.544
206.22	0.656
206.69	0.659
207.16	0.473
207.63	0.615
208.11	0.437
208.58	0.380
209.05	0.579
209.52	0.647
209.99	0.673
210.46	0.290
210.93	0.693
211.41	0.685
211.88	0.783
212.35	0.471
212.82	1.015
213.29	0.564
213.76	0.488
214.23	0.505
214.70	0.647
215.18	0.531
215.65	0.392
216.12	0.465
216.59	0.557
217.06	0.419
217.53	0.577
218.00	0.571
218.47	0.473
218.94	0.776
219.41	0.515
219.89	0.769
220.36	0.431
220.83	0.491
221.30	0.948
221.77	0.696
222.24	0.666
222.71	0.689
223.18	0.884
223.65	0.555
224.12	0.640
224.59	0.662
225.06	0.781
225.54	0.692
226.01	0.861
226.48	1.007
226.95	0.999
227.42	0.895
227.89	1.298
228.36	1.012
228.83	1.046
229.30	1.144
229.77	1.601
230.24	1.271
230.71	1.382
231.18	1.213
231.65	1.666
232.12	1.505
232.59	1.509
233.06	1.621
233.53	2.110
234.00	1.677
234.47	1.884
234.94	2.083
235.41	1.655
235.88	1.740
236.35	2.055
236.82	2.120
237.29	1.990
237.76	1.878
238.23	2.284
238.70	2.396
239.17	1.977
239.64	2.132
240.11	2.243
240.58	2.071
241.05	2.107
241.52	2.367
241.99	2.244
242.46	2.157
242.93	2.157
243.40	2.533
243.87	2.398
244.34	2.108
244.81	2.482
245.28	2.554
245.75	2.344
246.22	2.456
246.69	3.018
247.16	2.514
247.63	2.458
248.10	2.399
248.57	3.272
249.04	2.360
249.51	2.355
249.98	2.825
250.45	2.772
250.92	2.551
251.39	2.575
251.85	2.960
252.32	2.536
252.79	2.624
253.26	2.432
253.73	2.692
254.20	2.570
254.67	2.387
255.14	3.052
255.61	2.907
256.08	2.966
256.55	2.697
257.02	2.809
257.49	2.615
257.95	2.825
258.42	2.714
258.89	2.701
259.36	2.897
259.83	2.626
260.30	3.394
260.77	2.703
261.24	2.528
261.71	2.807
262.17	3.064
262.64	2.696
263.11	2.695
263.58	2.991
264.05	2.640
264.52	2.773
264.99	2.860
265.46	2.995
265.92	2.701
266.39	2.793
266.86	3.102
267.33	2.827
267.80	2.913
268.27	2.724
268.74	3.148
269.20	2.573
269.67	2.861
270.14	2.834
270.61	2.808
271.08	2.652
271.55	2.617
272.01	3.019
272.48	2.628
272.95	2.598
273.42	2.716
273.89	2.830
274.36	2.557
274.82	2.634
275.29	2.689
275.76	2.534
276.23	2.778
276.70	2.560
277.16	3.518
277.63	2.609
278.10	2.584
278.57	2.630
279.04	2.727
279.50	2.801
279.97	2.519
280.44	2.746
280.91	2.829
281.38	2.640
281.84	2.559
282.31	2.685
282.78	2.633
283.25	2.649
283.72	3.017
284.18	2.698
284.65	2.605
285.12	2.720
285.59	2.615
286.05	2.598
286.52	2.554
286.99	2.572
287.46	2.986
287.92	2.644
288.39	2.463
288.86	2.821
289.33	2.607
289.79	2.442
290.26	2.632
290.73	2.729
291.20	2.443
291.66	2.506
292.13	2.528
292.60	2.687
293.07	2.520
293.53	2.477
294.00	2.670
294.47	2.572
294.93	2.523
295.40	2.575
295.87	2.682
296.34	2.558
296.80	2.458
297.27	2.675
297.74	2.701
298.20	2.505
298.67	2.429
299.14	2.619
299.60	2.461
300.07	2.429
300.54	2.548
301.01	2.729
301.47	2.517
301.94	2.431
302.41	2.399
302.87	2.431
303.34	2.440
303.81	2.340
304.27	2.477
304.74	2.439
305.21	2.317
305.67	2.533
306.14	2.549
306.61	2.430
307.07	2.426
307.54	2.595
308.01	2.417
308.47	2.431
308.94	2.456
309.40	2.522
309.87	2.404
310.34	2.342
310.80	2.554
311.27	2.409
311.74	2.282
312.20	2.481
312.67	2.687
313.13	2.463
313.60	2.349
314.07	2.322
314.53	2.380
315.00	2.344
315.47	2.356
315.93	2.575
316.40	2.407
316.86	2.338
317.33	2.338
317.80	2.457
318.26	2.293
318.73	2.332
319.19	2.414
319.66	2.351
320.13	2.322
320.59	2.229
321.06	2.291
321.52	2.315
321.99	2.226
322.45	2.314
322.92	2.384
323.39	2.247
323.85	2.295
324.32	2.416
324.78	2.228
325.25	2.239
325.71	2.257
326.18	2.222
326.64	2.250
327.11	2.103
327.58	2.284
328.04	2.212
328.51	2.104
328.97	2.212
329.44	2.253
329.90	2.192
330.37	2.163
330.83	2.153
331.30	2.190
331.76	2.066
332.23	2.074
332.69	2.220
333.16	2.208
333.62	2.128
334.09	2.143
334.56	2.164
335.02	2.116
335.49	2.091
335.95	2.122
336.42	2.139
336.88	2.116
337.35	2.074
337.81	2.091
338.28	2.172
338.74	2.066
339.20	2.119
339.67	2.138
340.13	2.073
340.60	2.101
341.06	2.102
341.53	2.133
341.99	2.050
342.46	2.070
342.92	2.160
343.39	2.056
343.85	2.034
344.32	2.017
344.78	2.070
345.25	1.999
345.71	1.974
346.17	2.024
346.64	1.969
347.10	1.946
347.57	1.934
348.03	1.940
348.50	1.890
348.96	1.898
349.43	1.918
349.89	1.855
350.35	1.819
350.82	1.750
351.28	1.762
351.75	1.723
352.21	1.705
352.67	1.642
353.14	1.656
353.60	1.629
354.07	1.537
354.53	1.592
355.00	1.522
355.46	1.487
355.92	1.487
356.39	1.434
356.85	1.378
357.31	1.330
357.78	1.308
358.24	1.244
358.71	1.181
359.17	1.115
359.63	1.072
360.10	1.005
360.56	0.934
361.03	0.880
361.49	0.824
361.95	0.763
362.42	0.705
362.88	0.661
363.34	0.610
363.81	0.563
364.27	0.523
364.73	0.483
365.20	0.445
365.66	0.412
366.12	0.393
366.59	0.368
367.05	0.345
367.51	0.327
367.98	0.311
368.44	0.299
368.90	0.282
369.37	0.275
369.83	0.262
370.29	0.256
370.76	0.247
371.22	0.241
371.68	0.236
372.15	0.231
372.61	0.222
373.07	0.223
373.54	0.219
374.00	0.216
374.46	0.215
374.92	0.212
375.39	0.208
375.85	0.206
376.31	0.206
376.78	0.203
377.24	0.200
377.70	0.199
378.16	0.197
378.63	0.197
379.09	0.196
379.55	0.193
380.01	0.194
380.48	0.191
380.94	0.192
381.40	0.187
381.87	0.189
382.33	0.185
382.79	0.182
383.25	0.182
383.72	0.182
384.18	0.181
384.64	0.182
385.10	0.179
385.56	0.175
386.03	0.178
386.49	0.177
386.95	0.174
387.41	0.176
387.88	0.172
388.34	0.168
388.80	0.174
389.26	0.172
389.72	0.170
390.19	0.167
390.65	0.167
391.11	0.167
391.57	0.167
392.04	0.169
392.50	0.167
392.96	0.163
393.42	0.162
393.88	0.164
394.34	0.161
394.81	0.162
395.27	0.162
395.73	0.156
396.19	0.159
396.65	0.159
397.12	0.158
397.58	0.158
398.04	0.158
398.50	0.156
398.96	0.156
399.42	0.156
399.89	0.152
400.35	0.154
400.81	0.151
401.27	0.152
401.73	0.150
402.19	0.153
402.65	0.145
403.12	0.149
403.58	0.149
404.04	0.144
404.50	0.145
404.96	0.145
405.42	0.145
405.88	0.145
406.34	0.144
406.81	0.143
407.27	0.140
407.73	0.141
408.19	0.140
408.65	0.139
409.11	0.137
409.57	0.140
410.03	0.140
410.49	0.139
410.96	0.136
411.42	0.139
411.88	0.135
412.34	0.134
412.80	0.138
413.26	0.138
413.72	0.133
414.18	0.134
414.64	0.133
415.10	0.133
415.56	0.136
416.02	0.133
416.48	0.133
416.95	0.135
417.41	0.133
417.87	0.132
418.33	0.132
418.79	0.131
419.25	0.131
419.71	0.131
420.17	0.129
420.63	0.127
421.09	0.128
421.55	0.129
422.01	0.126
422.47	0.127
422.93	0.129
423.39	0.126
423.85	0.124
424.31	0.127
424.77	0.128
425.23	0.125
425.69	0.126
426.15	0.124
426.61	0.126
427.07	0.122
427.53	0.123
427.99	0.123
428.45	0.126
428.91	0.123
429.37	0.124
429.83	0.123
430.29	0.123
430.75	0.120
431.21	0.122
431.67	0.121
432.13	0.120
432.59	0.119
433.05	0.122
433.51	0.120
433.97	0.118
434.43	0.121
434.89	0.120
435.35	0.118
435.81	0.117
436.27	0.121
436.73	0.115
437.19	0.119
437.65	0.115
438.11	0.116
438.57	0.116
439.03	0.117
439.48	0.115
439.94	0.114
440.40	0.117
440.86	0.114
441.32	0.117
441.78	0.113
442.24	0.112
442.70	0.115
443.16	0.114
443.62	0.116
444.08	0.111
444.54	0.113
444.99	0.114
445.45	0.111
445.91	0.110
446.37	0.112
446.83	0.112
447.29	0.110
447.75	0.109
448.21	0.116
448.67	0.112
449.12	0.111
449.58	0.111
450.04	0.112
450.50	0.109
450.96	0.108
451.42	0.108
451.88	0.112
452.34	0.107
452.79	0.110
453.25	0.108
453.71	0.109
454.17	0.106
454.63	0.108
455.09	0.107
455.55	0.107
456.00	0.106
456.46	0.106
456.92	0.108
457.38	0.106
457.84	0.108
458.30	0.108
458.75	0.107
459.21	0.106
459.67	0.107
460.13	0.107
460.59	0.105
461.04	0.106
461.50	0.105
461.96	0.107
462.42	0.105
462.88	0.104
463.33	0.105
463.79	0.104
464.25	0.103
464.71	0.105
465.17	0.102
465.62	0.102
466.08	0.103
466.54	0.105
467.00	0.102
467.46	0.102
467.91	0.103
468.37	0.099
468.83	0.102
469.29	0.103
469.74	0.100
470.20	0.102
470.66	0.100
471.12	0.100
471.57	0.100
472.03	0.100
472.49	0.100
472.95	0.103
473.40	0.099
473.86	0.101
474.32	0.098
474.78	0.100
475.23	0.101
475.69	0.099
476.15	0.101
476.60	0.101
477.06	0.099
477.52	0.098
477.98	0.098
478.43	0.098
478.89	0.098
479.35	0.100
479.80	0.097
480.26	0.096
480.72	0.098
481.18	0.098
481.63	0.098
482.09	0.096
482.55	0.095
483.00	0.094
483.46	0.099
483.92	0.095
484.37	0.094
484.83	0.096
485.29	0.096
485.74	0.095
486.20	0.094
486.66	0.096
487.11	0.095
487.57	0.094
488.03	0.094
488.48	0.097
488.94	0.093
489.40	0.092
489.85	0.094
490.31	0.095
490.77	0.093
491.22	0.095
491.68	0.094
492.13	0.092
492.59	0.096
493.05	0.093
493.50	0.092
493.96	0.093
494.42	0.095
494.87	0.092
495.33	0.092
495.78	0.091
496.24	0.092
496.70	0.092
497.15	0.091
497.61	0.094
498.06	0.092
498.52	0.091
498.98	0.090
499.43	0.091
499.89	0.093
500.34	0.090
500.80	0.090
501.25	0.090
501.71	0.091
502.17	0.089
502.62	0.090
503.08	0.088
503.53	0.089
503.99	0.088
504.44	0.090
504.90	0.088
505.36	0.088
505.81	0.092
506.27	0.089
506.72	0.088
507.18	0.088
507.63	0.088
508.09	0.088
508.54	0.086
509.00	0.088
509.45	0.087
509.91	0.087
510.36	0.087
510.82	0.089
511.27	0.086
511.73	0.087
512.19	0.087
512.64	0.086
513.10	0.087
513.55	0.085
514.01	0.087
514.46	0.089
514.92	0.088
515.37	0.088
515.83	0.086
516.28	0.087
516.73	0.085
517.19	0.084
517.64	0.087
518.10	0.086
518.55	0.087
519.01	0.087
519.46	0.086
519.92	0.086
520.37	0.083
520.83	0.085
521.28	0.082
521.74	0.086
522.19	0.083
522.65	0.084
523.10	0.085
523.55	0.085
524.01	0.085
524.46	0.084
524.92	0.083
525.37	0.085
525.83	0.083
526.28	0.084
526.73	0.083
527.19	0.084
527.64	0.084
528.10	0.082
528.55	0.085
529.01	0.084
529.46	0.082
529.91	0.081
530.37	0.082
530.82	0.082
531.28	0.082
531.73	0.083
532.18	0.085
532.64	0.083
533.09	0.084
533.54	0.081
534.00	0.085
534.45	0.083
534.91	0.081
535.36	0.082
535.81	0.082
536.27	0.081
536.72	0.080
537.17	0.082
537.63	0.080
538.08	0.083
538.54	0.083
538.99	0.084
539.44	0.081
539.90	0.083
540.35	0.081
540.80	0.080
541.26	0.082
541.71	0.084
542.16	0.081
542.62	0.083
543.07	0.082
543.52	0.080
543.98	0.081
544.43	0.081
544.88	0.080
545.34	0.082
545.79	0.081
546.24	0.079
546.69	0.079
547.15	0.083
547.60	0.083
548.05	0.081
548.51	0.082
548.96	0.081
549.41	0.082
549.86	0.084
550.32	0.082
550.77	0.082
551.22	0.081
551.68	0.081
552.13	0.082
552.58	0.081
553.03	0.082
553.49	0.082
553.94	0.081
554.39	0.083
554.84	0.084
555.30	0.081
555.75	0.082
556.20	0.082
556.65	0.083
557.11	0.083
557.56	0.084
558.01	0.086
558.46	0.081
558.92	0.082
559.37	0.083
559.82	0.083
560.27	0.081
560.72	0.082
561.18	0.085
561.63	0.084
562.08	0.083
562.53	0.083
562.99	0.083
563.44	0.084
563.89	0.085
564.34	0.084
564.79	0.086
565.25	0.085
565.70	0.085
566.15	0.085
566.60	0.085
567.05	0.086
567.50	0.086
567.96	0.086
568.41	0.086
568.86	0.085
569.31	0.085
569.76	0.085
570.21	0.087
570.67	0.084
571.12	0.087
571.57	0.085
572.02	0.087
572.47	0.088
572.92	0.086
573.37	0.089
573.83	0.088
574.28	0.087
574.73	0.087
575.18	0.087
575.63	0.087
576.08	0.087
576.53	0.087
576.98	0.088
577.44	0.088
577.89	0.088
578.34	0.089
578.79	0.088
579.24	0.087
579.69	0.088
580.14	0.090
580.59	0.091
581.04	0.089
581.49	0.090
581.95	0.092
582.40	0.092
582.85	0.091
583.30	0.093
583.75	0.094
584.20	0.094
584.65	0.093
585.10	0.095
585.55	0.095
586.00	0.094
586.45	0.094
586.90	0.095
587.35	0.095
587.80	0.095
588.25	0.096
588.71	0.096
589.16	0.097
589.61	0.097
590.06	0.099
590.51	0.099
590.96	0.099
591.41	0.100
591.86	0.101
592.31	0.101
592.76	0.102
593.21	0.102
593.66	0.103
594.11	0.105
594.56	0.106
595.01	0.105
595.46	0.103
595.91	0.106
596.36	0.108
596.81	0.107
597.26	0.106
597.71	0.107
598.16	0.109
598.61	0.110
599.06	0.110
599.51	0.110
599.96	0.111
600.41	0.110
600.86	0.110
601.31	0.113
601.76	0.114
602.21	0.114
602.65	0.116
603.10	0.114
603.55	0.115
604.00	0.117
604.45	0.118
604.90	0.118
605.35	0.120
605.80	0.117
606.25	0.117
606.70	0.118
607.15	0.119
607.60	0.120
608.05	0.120
608.50	0.120
608.95	0.121
609.39	0.121
609.84	0.123
610.29	0.122
610.74	0.122
611.19	0.122
611.64	0.123
612.09	0.123
612.54	0.123
612.99	0.124
613.44	0.123
613.88	0.124
614.33	0.123
614.78	0.126
615.23	0.125
615.68	0.124
616.13	0.124
616.58	0.124
617.03	0.126
617.47	0.127
617.92	0.126
618.37	0.126
618.82	0.127
619.27	0.126
619.72	0.127
620.17	0.126
620.61	0.126
621.06	0.127
621.51	0.124
621.96	0.126
622.41	0.126
622.86	0.127
623.30	0.128
623.75	0.127
624.20	0.130
624.65	0.129
625.10	0.129
625.54	0.127
625.99	0.127
626.44	0.129
626.89	0.129
627.34	0.129
627.78	0.130
628.23	0.130
628.68	0.128
629.13	0.130
629.58	0.130
630.02	0.131
630.47	0.131
630.92	0.132
631.37	0.133
631.81	0.132
632.26	0.134
632.71	0.134
633.16	0.135
633.61	0.135
634.05	0.135
634.50	0.136
634.95	0.138
635.40	0.137
635.84	0.139
636.29	0.139
636.74	0.140
637.18	0.141
637.63	0.142
638.08	0.141
638.53	0.141
638.97	0.143
639.42	0.145
639.87	0.145
640.32	0.146
640.76	0.147
641.21	0.147
641.66	0.147
642.10	0.150
642.55	0.151
643.00	0.151
643.44	0.152
643.89	0.156
644.34	0.155
644.79	0.156
645.23	0.157
645.68	0.158
646.13	0.159
646.57	0.162
647.02	0.162
647.47	0.162
647.91	0.163
648.36	0.165
648.81	0.165
649.25	0.166
649.70	0.166
650.15	0.169
650.59	0.171
651.04	0.172
651.48	0.171
651.93	0.173
652.38	0.173
652.82	0.177
653.27	0.173
653.72	0.175
654.16	0.177
654.61	0.179
655.06	0.178
655.50	0.179
655.95	0.180
656.39	0.178
656.84	0.181
657.29	0.184
657.73	0.184
658.18	0.184
658.62	0.185
659.07	0.188
659.52	0.187
659.96	0.189
660.41	0.189
660.85	0.190
661.30	0.192
661.74	0.191
662.19	0.191
662.64	0.191
663.08	0.191
663.53	0.191
663.97	0.192
664.42	0.190
664.86	0.191
665.31	0.192
665.75	0.192
666.20	0.190
666.65	0.193
667.09	0.193
667.54	0.192
667.98	0.190
668.43	0.190
668.87	0.190
669.32	0.189
669.76	0.187
670.21	0.187
670.65	0.184
671.10	0.185
671.54	0.183
671.99	0.184
672.43	0.179
672.88	0.177
673.32	0.176
673.77	0.177
674.21	0.173
674.66	0.170
675.10	0.169
675.55	0.166
675.99	0.163
676.44	0.161
676.88	0.158
677.33	0.159
677.77	0.151
678.22	0.150
678.66	0.146
679.11	0.145
679.55	0.144
679.99	0.140
680.44	0.136
680.88	0.134
681.33	0.130
681.77	0.128
682.22	0.123
682.66	0.125
683.11	0.119
683.55	0.118
683.99	0.115
684.44	0.114
684.88	0.113
685.33	0.109
685.77	0.107
686.21	0.103
686.66	0.101
687.10	0.098
687.55	0.097
687.99	0.094
688.44	0.094
688.88	0.090
689.32	0.090
689.77	0.087
690.21	0.087
690.65	0.084
691.10	0.081
691.54	0.082
691.99	0.080
692.43	0.080
692.87	0.079
693.32	0.077
693.76	0.073
694.20	0.072
694.65	0.072
695.09	0.069
695.53	0.069
695.98	0.068
696.42	0.069
696.86	0.067
697.31	0.067
697.75	0.066
698.19	0.066
698.64	0.064
699.08	0.064
699.52	0.063
699.97	0.061
700.41	0.060
700.85	0.061
701.30	0.058
701.74	0.060
702.18	0.058
702.63	0.057
703.07	0.055
703.51	0.056
703.96	0.059
704.40	0.057
704.84	0.057
705.28	0.056
705.73	0.057
706.17	0.055
706.61	0.057
707.06	0.055
707.50	0.054
707.94	0.057
708.38	0.054
708.83	0.056
709.27	0.057
709.71	0.054
710.15	0.053
710.60	0.054
711.04	0.051
711.48	0.055
711.92	0.054
712.37	0.053
712.81	0.053
713.25	0.056
713.69	0.052
714.13	0.052
714.58	0.053
715.02	0.050
715.46	0.053
715.90	0.052
716.35	0.055
716.79	0.054
717.23	0.054
717.67	0.055
718.11	0.051
718.56	0.054
719.00	0.054
719.44	0.053
719.88	0.055
720.32	0.052
720.76	0.050
721.21	0.052
721.65	0.054
722.09	0.053
722.53	0.053
722.97	0.051
723.41	0.053
723.86	0.053
724.30	0.053
724.74	0.052
725.18	0.051
725.62	0.053
726.06	0.054
726.50	0.055
726.95	0.055
727.39	0.054
727.83	0.055
728.27	0.053
728.71	0.055
729.15	0.052
729.59	0.052
730.03	0.056
730.48	0.054
730.92	0.056
731.36	0.051
731.80	0.055
732.24	0.057
732.68	0.056
733.12	0.056
733.56	0.056
734.00	0.058
734.44	0.057
734.89	0.056
735.33	0.054
735.77	0.057
736.21	0.055
736.65	0.055
737.09	0.057
737.53	0.056
737.97	0.058
738.41	0.057
738.85	0.057
739.29	0.055
739.73	0.056
740.17	0.055
740.61	0.054
741.05	0.059
741.49	0.055
741.93	0.053
742.37	0.055
742.81	0.056
743.26	0.056
743.70	0.056
744.14	0.056
744.58	0.057
745.02	0.056
745.46	0.059
745.90	0.055
746.34	0.056
746.78	0.058
747.22	0.056
747.66	0.054
748.10	0.056
748.54	0.057
748.98	0.056
749.42	0.054
749.86	0.056
750.29	0.056
750.73	0.055
751.17	0.055
751.61	0.059
752.05	0.055
752.49	0.056
752.93	0.055
753.37	0.057
753.81	0.054
754.25	0.056
754.69	0.056
755.13	0.055
755.57	0.054
756.01	0.055
756.45	0.053
756.89	0.054
757.33	0.054
757.77	0.055
758.21	0.056
758.64	0.052
759.08	0.053
759.52	0.056
759.96	0.056
760.40	0.056
760.84	0.054
761.28	0.053
761.72	0.054
762.16	0.052
762.60	0.055
763.03	0.055
763.47	0.054
763.91	0.055
764.35	0.051
764.79	0.055
765.23	0.054
765.67	0.051
766.11	0.056
766.54	0.056
766.98	0.052
767.42	0.055
767.86	0.055
768.30	0.054
768.74	0.053
769.17	0.054
769.61	0.053
770.05	0.054
770.49	0.056
770.93	0.053
771.37	0.055
771.80	0.050
772.24	0.050
772.68	0.053
773.12	0.051
773.56	0.052
774.00	0.053
774.43	0.052
774.87	0.051
775.31	0.052
775.75	0.052
776.19	0.052
776.62	0.052
777.06	0.050
777.50	0.054
777.94	0.051
778.37	0.054
778.81	0.053
779.25	0.048
779.69	0.050
780.13	0.054
780.56	0.051
781.00	0.054
781.44	0.052
781.88	0.053
782.31	0.050
782.75	0.050
783.19	0.049
783.63	0.052
784.06	0.051
784.50	0.049
784.94	0.052
785.37	0.050
785.81	0.048
786.25	0.051
786.69	0.052
787.12	0.052
787.56	0.052
788.00	0.053
788.43	0.051
788.87	0.049
789.31	0.053
789.75	0.051
790.18	0.051
790.62	0.050
791.06	0.050
791.49	0.052
791.93	0.050
792.37	0.048
792.80	0.051
793.24	0.051
793.68	0.051
794.11	0.055
794.55	0.052
794.99	0.050
795.42	0.055
795.86	0.057
796.30	0.049
796.73	0.050
797.17	0.049
797.61	0.049
798.04	0.054
798.48	0.049
798.91	0.051
799.35	0.051
799.79	0.048
800.22	0.049
800.66	0.048
801.10	0.055
801.53	0.055
801.97	0.053
802.40	0.046
802.84	0.050
803.28	0.049
803.71	0.051
804.15	0.052
804.58	0.052
805.02	0.050
805.46	0.047
805.89	0.050
806.33	0.051
806.76	0.049
807.20	0.049
807.63	0.049
808.07	0.049
808.51	0.050
808.94	0.051
809.38	0.049
809.81	0.053
810.25	0.051
810.68	0.050
811.12	0.052
811.55	0.051
811.99	0.050
812.42	0.047
812.86	0.046
813.29	0.048
813.73	0.049
814.17	0.042
814.60	0.048
815.04	0.045
815.47	0.045
815.91	0.045
816.34	0.049
816.78	0.050
817.21	0.050
817.65	0.049
818.08	0.048
818.52	0.047
818.95	0.050
819.39	0.052
819.82	0.048
820.25	0.049
820.69	0.049
821.12	0.051
821.56	0.051
821.99	0.052
822.43	0.050
822.86	0.055
823.30	0.049
823.73	0.048
824.17	0.052
824.60	0.052
825.04	0.054
825.47	0.049
825.90	0.047
826.34	0.053
826.77	0.052
827.21	0.055
827.64	0.050
828.08	0.052
828.51	0.053
828.94	0.052
829.38	0.053
829.81	0.053
830.25	0.056
830.68	0.052
831.11	0.055
831.55	0.056
831.98	0.055
832.42	0.054
832.85	0.056
833.28	0.054
833.72	0.060
834.15	0.060
834.58	0.052
835.02	0.053
835.45	0.054
835.88	0.057
836.32	0.058
836.75	0.058
837.19	0.058
837.62	0.053
838.05	0.058
838.49	0.055
838.92	0.056
839.35	0.057
839.79	0.057
840.22	0.055
840.65	0.059
841.09	0.056
841.52	0.054
841.95	0.051
842.39	0.054
842.82	0.059
843.25	0.058
843.68	0.060
844.12	0.058
844.55	0.059
844.98	0.061
845.42	0.054
845.85	0.053
846.28	0.056
846.71	0.054
847.15	0.056
847.58	0.059
848.01	0.055
848.45	0.057
848.88	0.056
849.31	0.058
849.74	0.058
850.18	0.061
850.61	0.059
851.04	0.055
851.47	0.056
851.91	0.057
852.34	0.056
852.77	0.059
853.20	0.059
853.64	0.058
854.07	0.059
854.50	0.061
854.93	0.056
855.36	0.054
855.80	0.058
856.23	0.059
856.66	0.056
857.09	0.063
857.52	0.056
857.96	0.058
858.39	0.065
858.82	0.059
859.25	0.067
859.68	0.057
860.12	0.061
860.55	0.058
860.98	0.062
861.41	0.063
861.84	0.062
862.27	0.067
862.71	0.065
863.14	0.061
863.57	0.063
864.00	0.061
864.43	0.053
864.86	0.064
865.30	0.066
865.73	0.061
866.16	0.059
866.59	0.064
867.02	0.062
867.45	0.059
867.88	0.060
868.31	0.064
868.75	0.060
869.18	0.061
869.61	0.062
870.04	0.065
870.47	0.062
870.90	0.070
871.33	0.066
871.76	0.061
872.19	0.055
872.62	0.069
873.06	0.062
873.49	0.062
873.92	0.065
874.35	0.064
874.78	0.069
875.21	0.063
875.64	0.069
876.07	0.070
876.50	0.063
876.93	0.060
877.36	0.065
877.79	0.063
878.22	0.061
878.65	0.066
879.08	0.071
879.51	0.068
879.94	0.069
880.37	0.065
880.80	0.061
881.23	0.066
881.67	0.065
882.10	0.069
882.53	0.070
882.96	0.074
883.39	0.070
883.82	0.070
884.25	0.072
884.68	0.066
885.11	0.070
885.54	0.068
885.97	0.062
886.39	0.065
886.82	0.063
887.25	0.071
887.68	0.069
888.11	0.066
888.54	0.070
888.97	0.068
889.40	0.070
889.83	0.069
890.26	0.072
890.69	0.072
891.12	0.070
891.55	0.070
891.98	0.072
892.41	0.069
892.84	0.077
893.27	0.072
893.70	0.069
894.13	0.070
894.56	0.073
894.98	0.072
895.41	0.074
895.84	0.081
896.27	0.073
896.70	0.072
897.13	0.071
897.56	0.075
897.99	0.071
898.42	0.075
898.85	0.077
899.27	0.075
899.70	0.076
900.13	0.079
900.56	0.077
900.99	0.075
901.42	0.072
901.85	0.074
902.28	0.078
902.70	0.076
903.13	0.072
903.56	0.083
903.99	0.074
904.42	0.076
904.85	0.079
905.27	0.076
905.70	0.077
906.13	0.074
906.56	0.074
906.99	0.079
907.42	0.080
907.84	0.074
908.27	0.080
908.70	0.076
909.13	0.074
909.56	0.077
909.98	0.078
910.41	0.078
910.84	0.075
911.27	0.078
911.70	0.075
912.12	0.073
912.55	0.073
912.98	0.075
913.41	0.077
913.84	0.075
914.26	0.077
914.69	0.073
915.12	0.078
915.55	0.073
915.97	0.076
916.40	0.076
916.83	0.076
917.26	0.079
917.68	0.079
918.11	0.082
918.54	0.079
918.97	0.076
919.39	0.081
919.82	0.081
920.25	0.077
920.67	0.076
921.10	0.081
921.53	0.077
921.96	0.082
922.38	0.081
922.81	0.083
923.24	0.082
923.66	0.082
924.09	0.078
924.52	0.081
924.94	0.084
925.37	0.085
925.80	0.085
926.22	0.085
926.65	0.088
927.08	0.083
927.50	0.087
927.93	0.090
928.36	0.089
928.78	0.089
929.21	0.090
929.64	0.092
930.06	0.093
930.49	0.095
930.92	0.091
931.34	0.095
931.77	0.095
932.20	0.096
932.62	0.091
933.05	0.093
933.47	0.096
933.90	0.097
934.33	0.102
934.75	0.101
935.18	0.103
935.61	0.102
936.03	0.102
936.46	0.108
936.88	0.110
937.31	0.107
937.73	0.113
938.16	0.109
938.59	0.110
939.01	0.119
939.44	0.119
939.86	0.119
940.29	0.115
940.71	0.124
941.14	0.123
941.57	0.121
941.99	0.123
942.42	0.124
942.84	0.127
943.27	0.127
943.69	0.132
944.12	0.131
944.54	0.134
944.97	0.135
945.39	0.144
945.82	0.140
946.24	0.132
946.67	0.147
947.09	0.143
947.52	0.153
947.94	0.153
948.37	0.152
948.79	0.154
949.22	0.157
949.64	0.160
950.07	0.160
950.49	0.166
950.92	0.168
951.34	0.180
951.77	0.175
952.19	0.169
952.62	0.175
953.04	0.179
953.47	0.181
953.89	0.185
954.32	0.187
954.74	0.194
955.17	0.193
955.59	0.201
956.01	0.203
956.44	0.203
956.86	0.201
957.29	0.207
957.71	0.215
958.14	0.212
958.56	0.218
958.98	0.218
959.41	0.218
959.83	0.222
960.26	0.224
960.68	0.222
961.10	0.223
961.53	0.225
961.95	0.222
962.38	0.232
962.80	0.233
963.22	0.229
963.65	0.234
964.07	0.232
964.50	0.229
964.92	0.231
965.34	0.231
965.77	0.230
966.19	0.224
966.61	0.237
967.04	0.236
967.46	0.237
967.88	0.232
968.31	0.242
968.73	0.236
969.15	0.235
969.58	0.239
970.00	0.237
970.42	0.244
970.85	0.239
971.27	0.238
971.69	0.237
972.12	0.234
972.54	0.243
972.96	0.245
973.39	0.247
973.81	0.246
974.23	0.250
974.65	0.249
975.08	0.248
975.50	0.246
975.92	0.246
976.35	0.245
976.77	0.242
977.19	0.244
977.61	0.246
978.04	0.239
978.46	0.238
978.88	0.242
979.30	0.247
979.73	0.247
980.15	0.247
980.57	0.245
980.99	0.250
981.42	0.235
981.84	0.251
982.26	0.246
982.68	0.245
983.11	0.249
983.53	0.246
983.95	0.246
984.37	0.239
984.79	0.242
985.22	0.239
985.64	0.247
986.06	0.231
986.48	0.245
986.90	0.236
987.33	0.237
987.75	0.242
988.17	0.242
988.59	0.243
989.01	0.235
989.43	0.236
989.86	0.237
990.28	0.234
990.70	0.235
991.12	0.237
991.54	0.237
991.96	0.235
992.39	0.224
992.81	0.233
993.23	0.232
993.65	0.229
994.07	0.229
994.49	0.231
994.91	0.231
995.34	0.228
995.76	0.231
996.18	0.233
996.60	0.217
997.02	0.221
997.44	0.227
997.86	0.225
998.28	0.218
998.70	0.228
999.12	0.224
999.55	0.223
999.97	0.223
1000.39	0.222
1000.81	0.219
1001.23	0.203
1001.65	0.216
1002.07	0.216
1002.49	0.214
1002.91	0.218
1003.33	0.210
1003.75	0.218
1004.17	0.209
1004.59	0.220
1005.01	0.217
1005.43	0.211
1005.85	0.209
1006.28	0.210
1006.70	0.213
1007.12	0.208
1007.54	0.206
1007.96	0.211
1008.38	0.210
1008.80	0.207
1009.22	0.200
1009.64	0.204
1010.06	0.205
1010.48	0.190
1010.90	0.199
1011.32	0.205
1011.74	0.197
1012.16	0.195
1012.58	0.208
1013.00	0.191
1013.42	0.190
1013.84	0.193
1014.26	0.193
1014.67	0.187
1015.09	0.179
1015.51	0.183
1015.93	0.196
1016.35	0.174
1016.77	0.184
1017.19	0.187
1017.61	0.173
1018.03	0.173
1018.45	0.181
1018.87	0.189
1019.29	0.181
1019.71	0.168
1020.13	0.171
1020.55	0.184
1020.97	0.161
1021.38	0.169
1021.80	0.170
1022.22	0.171
1022.64	0.165
1023.06	0.178
1023.48	0.171
1023.90	0.152
1024.32	0.162
1024.74	0.165
1025.15	0.175
1025.57	0.171
1025.99	0.172
1026.41	0.168
1026.83	0.159
1027.25	0.165
1027.67	0.165
1028.08	0.167
1028.50	0.160
1028.92	0.163
1029.34	0.152
1029.76	0.167
1030.18	0.151
1030.60	0.162
1031.01	0.153
1031.43	0.146
1031.85	0.151
1032.27	0.155
1032.69	0.139
1033.10	0.152
1033.52	0.144
1033.94	0.158
1034.36	0.155
1034.78	0.157
1035.19	0.137
1035.61	0.152
1036.03	0.139
1036.45	0.152
1036.87	0.145
1037.28	0.131
1037.70	0.125
1038.12	0.138
1038.54	0.136
1038.95	0.145
1039.37	0.140
1039.79	0.129
1040.21	0.117
1040.62	0.109
1041.04	0.132
1041.46	0.158
1041.88	0.133
1042.29	0.138
1042.71	0.148
1043.13	0.109
1043.55	0.134
1043.96	0.132
1044.38	0.145
1044.80	0.141
1045.21	0.128
1045.63	0.145
1046.05	0.129
1046.47	0.127
1046.88	0.140
1047.30	0.124
1047.72	0.144
1048.13	0.100
1048.55	0.138
1048.97	0.143
1049.38	0.129
1049.80	0.105
1050.22	0.126
1050.63	0.144
1051.05	0.110
1051.47	0.129
1051.88	0.125
1052.30	0.116
1052.72	0.094
1053.13	0.119
1053.55	0.140
1053.97	0.107
1054.38	0.124
1054.80	0.142
1055.21	0.130
1055.63	0.107
1056.05	0.120
1056.46	0.153
1056.88	0.118
1057.29	0.108
1057.71	0.157
1058.13	0.144
1058.54	0.107
1058.96	0.096
1059.37	0.138
1059.79	0.138
1060.21	0.128
1060.62	0.117
1061.04	0.153
1061.45	0.107
1061.87	0.112
1062.28	0.135
1062.70	0.151
1063.12	0.133
1063.53	0.140
1063.95	0.130
1064.36	0.128
1064.78	0.086
1065.19	0.170
1065.61	0.186
1066.02	0.096
1066.44	0.151
1066.85	0.132
1067.27	0.128
1067.68	0.071
1068.10	0.164
1068.51	0.225
1068.93	0.093
1069.35	0.128
1069.76	0.192
1070.17	0.190
1070.59	0.039
1071.00	0.207
1071.42	0.186
1071.83	0.165
1072.25	0.124
1072.66	0.176
1073.08	0.259
1073.49	0.174
1073.91	0.137
1074.32	0.271
1074.74	0.279
1075.15	0.065
1075.57	0.109
1075.98	0.189
1076.40	0.113
1076.81	0.129
1077.22	0.288
1077.64	0.233
1078.05	0.241
1078.47	0.252
1078.88	0.181
1079.30	0.229
1079.71	0.100
1080.12	0.257
1080.54	0.365
1080.95	0.242
1081.37	0.196
1081.78	0.406
1082.19	0.324
1082.61	0.429
1083.02	0.367
1083.44	0.530
1083.85	0.374
1084.26	0.147
1084.68	0.451
1085.09	0.259
1085.50	0.127
1085.92	0.869
1086.33	-0.000
1086.74	0.273
1087.16	0.084
1087.57	1.201
1087.98	0.994
1088.40	0.348
1088.81	0.416
1089.22	0.502
1089.64	0.193
1090.05	0.174
1090.46	-0.000
1090.88	-0.000
1091.29	0.326
1091.70	0.209
1092.12	0.318
1092.53	-0.000
1092.94	0.388
1093.36	1.813
1093.77	-0.000
1094.18	-0.000
1094.59	-0.000
1095.01	0.872
1095.42	-0.000
1095.83	0.718
1096.25	0.697
1096.66	-0.000
1097.07	-0.000
1097.48	0.457
1097.90	-0.000
1098.31	0.740
1098.72	0.520
1099.13	-0.010
>>>>>End Processed Spectral Data<<<<<
