SpectraSuite Data File
++++++++++++++++++++++++++++++++++++
Date: Wed May 04 12:33:24 CEST 2016
User: spectrasuite
Dark Spectrum Present: Yes
Reference Spectrum Present: Yes
Number of Sampled Component Spectra: 1
Spectrometers: HR+C0708
Integration Time (usec): 1000 (HR+C0708)
Spectra Averaged: 10 (HR+C0708)
Boxcar Smoothing: 0 (HR+C0708)
Correct for Electrical Dark: No (HR+C0708)
Strobe/Lamp Enabled: No (HR+C0708)
Correct for Detector Non-linearity: No (HR+C0708)
Correct for Stray Light: No (HR+C0708)
Number of Pixels in Processed Spectrum: 2048
>>>>>Begin Processed Spectral Data<<<<<
188.76	0.025
189.23	-0.000
189.70	-0.076
190.17	0.051
190.64	-0.000
191.12	0.148
191.59	-0.523
192.06	0.682
192.53	-0.000
193.01	0.552
193.48	0.081
193.95	-0.000
194.42	0.333
194.90	0.010
195.37	0.097
195.84	-0.000
196.31	0.227
196.78	1.342
197.26	0.178
197.73	0.607
198.20	0.059
198.67	0.301
199.14	1.118
199.62	0.512
200.09	0.335
200.56	0.347
201.03	0.445
201.50	0.352
201.97	0.280
202.45	0.406
202.92	0.666
203.39	0.532
203.86	0.360
204.33	0.507
204.80	0.456
205.28	0.370
205.75	0.303
206.22	0.477
206.69	0.524
207.16	0.353
207.63	0.463
208.11	0.546
208.58	0.390
209.05	0.606
209.52	0.551
209.99	0.377
210.46	0.253
210.93	0.794
211.41	0.321
211.88	0.504
212.35	0.444
212.82	0.719
213.29	0.408
213.76	0.376
214.23	0.604
214.70	0.583
215.18	0.476
215.65	0.302
216.12	0.534
216.59	0.480
217.06	0.288
217.53	0.530
218.00	0.348
218.47	0.407
218.94	0.513
219.41	0.423
219.89	0.563
220.36	0.550
220.83	0.507
221.30	0.602
221.77	0.647
222.24	0.516
222.71	0.779
223.18	0.685
223.65	0.442
224.12	0.583
224.59	0.695
225.06	0.846
225.54	0.609
226.01	0.841
226.48	0.932
226.95	0.923
227.42	0.757
227.89	0.911
228.36	1.017
228.83	0.963
229.30	1.160
229.77	1.273
230.24	1.136
230.71	1.128
231.18	1.195
231.65	1.506
232.12	1.466
232.59	1.514
233.06	1.612
233.53	1.630
234.00	1.549
234.47	1.618
234.94	2.005
235.41	1.809
235.88	1.829
236.35	1.873
236.82	1.951
237.29	1.921
237.76	1.872
238.23	2.158
238.70	2.158
239.17	1.948
239.64	2.132
240.11	2.289
240.58	2.089
241.05	2.178
241.52	2.144
241.99	2.111
242.46	2.137
242.93	2.081
243.40	2.580
243.87	2.376
244.34	2.170
244.81	2.316
245.28	2.277
245.75	2.148
246.22	2.331
246.69	2.575
247.16	2.211
247.63	2.349
248.10	2.324
248.57	3.096
249.04	2.482
249.51	2.278
249.98	2.820
250.45	2.533
250.92	2.438
251.39	2.385
251.85	2.565
252.32	2.497
252.79	2.524
253.26	2.500
253.73	2.595
254.20	2.522
254.67	2.402
255.14	2.876
255.61	2.579
256.08	2.388
256.55	2.620
257.02	2.940
257.49	2.592
257.95	2.654
258.42	2.600
258.89	2.791
259.36	2.710
259.83	2.794
260.30	2.863
260.77	2.731
261.24	2.498
261.71	2.747
262.17	2.736
262.64	2.785
263.11	2.679
263.58	2.961
264.05	2.623
264.52	2.734
264.99	2.747
265.46	2.782
265.92	2.685
266.39	2.529
266.86	3.011
267.33	2.768
267.80	2.645
268.27	2.754
268.74	2.873
269.20	2.557
269.67	2.637
270.14	2.719
270.61	2.634
271.08	2.504
271.55	2.486
272.01	2.692
272.48	2.502
272.95	2.387
273.42	2.768
273.89	2.647
274.36	2.542
274.82	2.723
275.29	2.606
275.76	2.572
276.23	2.744
276.70	2.499
277.16	2.809
277.63	2.555
278.10	2.419
278.57	2.477
279.04	2.607
279.50	2.539
279.97	2.518
280.44	2.609
280.91	2.794
281.38	2.669
281.84	2.499
282.31	2.525
282.78	2.531
283.25	2.614
283.72	2.708
284.18	2.680
284.65	2.563
285.12	2.493
285.59	2.642
286.05	2.594
286.52	2.583
286.99	2.652
287.46	2.737
287.92	2.507
288.39	2.406
288.86	2.629
289.33	2.717
289.79	2.361
290.26	2.612
290.73	2.563
291.20	2.445
291.66	2.462
292.13	2.464
292.60	2.748
293.07	2.583
293.53	2.442
294.00	2.541
294.47	2.640
294.93	2.512
295.40	2.553
295.87	2.555
296.34	2.529
296.80	2.395
297.27	2.472
297.74	2.613
298.20	2.542
298.67	2.377
299.14	2.550
299.60	2.430
300.07	2.369
300.54	2.584
301.01	2.438
301.47	2.446
301.94	2.385
302.41	2.393
302.87	2.450
303.34	2.517
303.81	2.310
304.27	2.390
304.74	2.341
305.21	2.322
305.67	2.487
306.14	2.360
306.61	2.291
307.07	2.426
307.54	2.437
308.01	2.353
308.47	2.396
308.94	2.300
309.40	2.350
309.87	2.352
310.34	2.253
310.80	2.305
311.27	2.356
311.74	2.210
312.20	2.369
312.67	2.583
313.13	2.306
313.60	2.295
314.07	2.218
314.53	2.302
315.00	2.284
315.47	2.266
315.93	2.387
316.40	2.267
316.86	2.219
317.33	2.331
317.80	2.317
318.26	2.199
318.73	2.251
319.19	2.288
319.66	2.218
320.13	2.247
320.59	2.177
321.06	2.301
321.52	2.255
321.99	2.141
322.45	2.201
322.92	2.172
323.39	2.168
323.85	2.156
324.32	2.215
324.78	2.129
325.25	2.091
325.71	2.155
326.18	2.163
326.64	2.096
327.11	1.998
327.58	2.124
328.04	2.101
328.51	1.968
328.97	2.032
329.44	2.078
329.90	2.051
330.37	2.025
330.83	2.043
331.30	2.077
331.76	2.006
332.23	2.019
332.69	2.058
333.16	2.059
333.62	1.989
334.09	2.033
334.56	2.051
335.02	2.008
335.49	2.012
335.95	2.020
336.42	2.002
336.88	1.952
337.35	1.931
337.81	1.964
338.28	1.997
338.74	1.931
339.20	2.010
339.67	1.978
340.13	1.960
340.60	1.980
341.06	1.985
341.53	1.966
341.99	1.935
342.46	1.949
342.92	1.974
343.39	1.968
343.85	1.921
344.32	1.936
344.78	1.924
345.25	1.872
345.71	1.868
346.17	1.880
346.64	1.871
347.10	1.831
347.57	1.792
348.03	1.838
348.50	1.757
348.96	1.722
349.43	1.764
349.89	1.716
350.35	1.638
350.82	1.611
351.28	1.625
351.75	1.548
352.21	1.532
352.67	1.506
353.14	1.499
353.60	1.468
354.07	1.366
354.53	1.395
355.00	1.326
355.46	1.285
355.92	1.253
356.39	1.193
356.85	1.132
357.31	1.068
357.78	1.005
358.24	0.942
358.71	0.871
359.17	0.813
359.63	0.750
360.10	0.683
360.56	0.615
361.03	0.555
361.49	0.497
361.95	0.443
362.42	0.392
362.88	0.347
363.34	0.305
363.81	0.265
364.27	0.233
364.73	0.203
365.20	0.176
365.66	0.154
366.12	0.142
366.59	0.125
367.05	0.111
367.51	0.102
367.98	0.094
368.44	0.086
368.90	0.080
369.37	0.077
369.83	0.074
370.29	0.067
370.76	0.064
371.22	0.061
371.68	0.060
372.15	0.057
372.61	0.055
373.07	0.057
373.54	0.053
374.00	0.055
374.46	0.054
374.92	0.054
375.39	0.052
375.85	0.052
376.31	0.052
376.78	0.051
377.24	0.048
377.70	0.049
378.16	0.051
378.63	0.050
379.09	0.049
379.55	0.049
380.01	0.050
380.48	0.050
380.94	0.049
381.40	0.047
381.87	0.050
382.33	0.046
382.79	0.045
383.25	0.046
383.72	0.048
384.18	0.047
384.64	0.048
385.10	0.046
385.56	0.047
386.03	0.047
386.49	0.047
386.95	0.048
387.41	0.048
387.88	0.046
388.34	0.045
388.80	0.048
389.26	0.047
389.72	0.048
390.19	0.045
390.65	0.046
391.11	0.047
391.57	0.048
392.04	0.046
392.50	0.049
392.96	0.047
393.42	0.043
393.88	0.045
394.34	0.044
394.81	0.045
395.27	0.045
395.73	0.042
396.19	0.046
396.65	0.047
397.12	0.044
397.58	0.047
398.04	0.044
398.50	0.045
398.96	0.044
399.42	0.044
399.89	0.044
400.35	0.045
400.81	0.042
401.27	0.044
401.73	0.043
402.19	0.043
402.65	0.041
403.12	0.044
403.58	0.043
404.04	0.039
404.50	0.037
404.96	0.039
405.42	0.041
405.88	0.040
406.34	0.039
406.81	0.040
407.27	0.039
407.73	0.038
408.19	0.040
408.65	0.039
409.11	0.037
409.57	0.036
410.03	0.040
410.49	0.040
410.96	0.038
411.42	0.039
411.88	0.037
412.34	0.036
412.80	0.038
413.26	0.038
413.72	0.035
414.18	0.035
414.64	0.036
415.10	0.037
415.56	0.035
416.02	0.036
416.48	0.035
416.95	0.038
417.41	0.034
417.87	0.039
418.33	0.037
418.79	0.034
419.25	0.036
419.71	0.037
420.17	0.033
420.63	0.033
421.09	0.033
421.55	0.034
422.01	0.034
422.47	0.036
422.93	0.034
423.39	0.035
423.85	0.033
424.31	0.033
424.77	0.036
425.23	0.032
425.69	0.036
426.15	0.037
426.61	0.036
427.07	0.032
427.53	0.035
427.99	0.035
428.45	0.037
428.91	0.036
429.37	0.035
429.83	0.035
430.29	0.035
430.75	0.034
431.21	0.035
431.67	0.035
432.13	0.034
432.59	0.034
433.05	0.036
433.51	0.036
433.97	0.033
434.43	0.038
434.89	0.037
435.35	0.036
435.81	0.039
436.27	0.038
436.73	0.037
437.19	0.039
437.65	0.033
438.11	0.036
438.57	0.036
439.03	0.036
439.48	0.036
439.94	0.037
440.40	0.037
440.86	0.038
441.32	0.039
441.78	0.035
442.24	0.038
442.70	0.039
443.16	0.040
443.62	0.038
444.08	0.039
444.54	0.039
444.99	0.039
445.45	0.036
445.91	0.037
446.37	0.040
446.83	0.040
447.29	0.039
447.75	0.037
448.21	0.043
448.67	0.041
449.12	0.038
449.58	0.038
450.04	0.040
450.50	0.041
450.96	0.036
451.42	0.040
451.88	0.040
452.34	0.039
452.79	0.041
453.25	0.041
453.71	0.040
454.17	0.039
454.63	0.042
455.09	0.040
455.55	0.041
456.00	0.040
456.46	0.040
456.92	0.043
457.38	0.041
457.84	0.042
458.30	0.042
458.75	0.042
459.21	0.043
459.67	0.043
460.13	0.041
460.59	0.043
461.04	0.044
461.50	0.042
461.96	0.042
462.42	0.044
462.88	0.041
463.33	0.043
463.79	0.044
464.25	0.041
464.71	0.044
465.17	0.043
465.62	0.042
466.08	0.042
466.54	0.044
467.00	0.044
467.46	0.042
467.91	0.043
468.37	0.044
468.83	0.043
469.29	0.042
469.74	0.044
470.20	0.042
470.66	0.044
471.12	0.042
471.57	0.043
472.03	0.043
472.49	0.045
472.95	0.046
473.40	0.046
473.86	0.045
474.32	0.045
474.78	0.044
475.23	0.045
475.69	0.046
476.15	0.046
476.60	0.046
477.06	0.047
477.52	0.047
477.98	0.046
478.43	0.047
478.89	0.047
479.35	0.048
479.80	0.047
480.26	0.043
480.72	0.045
481.18	0.046
481.63	0.046
482.09	0.049
482.55	0.045
483.00	0.045
483.46	0.047
483.92	0.047
484.37	0.046
484.83	0.047
485.29	0.049
485.74	0.047
486.20	0.048
486.66	0.049
487.11	0.048
487.57	0.048
488.03	0.045
488.48	0.051
488.94	0.048
489.40	0.048
489.85	0.049
490.31	0.049
490.77	0.049
491.22	0.049
491.68	0.049
492.13	0.047
492.59	0.050
493.05	0.047
493.50	0.049
493.96	0.049
494.42	0.051
494.87	0.052
495.33	0.049
495.78	0.050
496.24	0.049
496.70	0.052
497.15	0.050
497.61	0.051
498.06	0.050
498.52	0.050
498.98	0.050
499.43	0.050
499.89	0.053
500.34	0.049
500.80	0.051
501.25	0.050
501.71	0.050
502.17	0.049
502.62	0.051
503.08	0.049
503.53	0.051
503.99	0.051
504.44	0.053
504.90	0.049
505.36	0.051
505.81	0.052
506.27	0.050
506.72	0.049
507.18	0.050
507.63	0.050
508.09	0.051
508.54	0.049
509.00	0.050
509.45	0.050
509.91	0.048
510.36	0.051
510.82	0.053
511.27	0.049
511.73	0.050
512.19	0.049
512.64	0.047
513.10	0.051
513.55	0.050
514.01	0.049
514.46	0.051
514.92	0.049
515.37	0.051
515.83	0.049
516.28	0.051
516.73	0.049
517.19	0.050
517.64	0.050
518.10	0.050
518.55	0.052
519.01	0.050
519.46	0.049
519.92	0.050
520.37	0.050
520.83	0.051
521.28	0.049
521.74	0.052
522.19	0.051
522.65	0.050
523.10	0.051
523.55	0.052
524.01	0.050
524.46	0.051
524.92	0.051
525.37	0.052
525.83	0.054
526.28	0.052
526.73	0.052
527.19	0.052
527.64	0.051
528.10	0.052
528.55	0.053
529.01	0.054
529.46	0.053
529.91	0.051
530.37	0.052
530.82	0.053
531.28	0.053
531.73	0.054
532.18	0.055
532.64	0.054
533.09	0.055
533.54	0.056
534.00	0.057
534.45	0.058
534.91	0.055
535.36	0.056
535.81	0.056
536.27	0.055
536.72	0.057
537.17	0.056
537.63	0.056
538.08	0.060
538.54	0.058
538.99	0.061
539.44	0.059
539.90	0.060
540.35	0.062
540.80	0.058
541.26	0.061
541.71	0.065
542.16	0.063
542.62	0.065
543.07	0.064
543.52	0.062
543.98	0.064
544.43	0.065
544.88	0.063
545.34	0.067
545.79	0.068
546.24	0.069
546.69	0.068
547.15	0.069
547.60	0.070
548.05	0.071
548.51	0.069
548.96	0.070
549.41	0.071
549.86	0.072
550.32	0.074
550.77	0.074
551.22	0.074
551.68	0.075
552.13	0.076
552.58	0.075
553.03	0.077
553.49	0.077
553.94	0.077
554.39	0.079
554.84	0.081
555.30	0.082
555.75	0.083
556.20	0.083
556.65	0.085
557.11	0.086
557.56	0.086
558.01	0.088
558.46	0.086
558.92	0.087
559.37	0.089
559.82	0.090
560.27	0.092
560.72	0.091
561.18	0.090
561.63	0.094
562.08	0.095
562.53	0.095
562.99	0.095
563.44	0.098
563.89	0.098
564.34	0.100
564.79	0.102
565.25	0.102
565.70	0.102
566.15	0.103
566.60	0.106
567.05	0.107
567.50	0.107
567.96	0.107
568.41	0.109
568.86	0.110
569.31	0.111
569.76	0.111
570.21	0.115
570.67	0.113
571.12	0.115
571.57	0.116
572.02	0.118
572.47	0.118
572.92	0.121
573.37	0.124
573.83	0.124
574.28	0.124
574.73	0.124
575.18	0.127
575.63	0.127
576.08	0.129
576.53	0.129
576.98	0.131
577.44	0.135
577.89	0.133
578.34	0.136
578.79	0.137
579.24	0.139
579.69	0.141
580.14	0.144
580.59	0.145
581.04	0.146
581.49	0.147
581.95	0.151
582.40	0.153
582.85	0.155
583.30	0.155
583.75	0.159
584.20	0.159
584.65	0.161
585.10	0.167
585.55	0.168
586.00	0.168
586.45	0.171
586.90	0.175
587.35	0.176
587.80	0.179
588.25	0.181
588.71	0.183
589.16	0.188
589.61	0.189
590.06	0.193
590.51	0.194
590.96	0.199
591.41	0.201
591.86	0.204
592.31	0.208
592.76	0.210
593.21	0.210
593.66	0.216
594.11	0.218
594.56	0.221
595.01	0.226
595.46	0.226
595.91	0.232
596.36	0.235
596.81	0.237
597.26	0.241
597.71	0.243
598.16	0.246
598.61	0.251
599.06	0.255
599.51	0.254
599.96	0.259
600.41	0.263
600.86	0.265
601.31	0.268
601.76	0.275
602.21	0.279
602.65	0.280
603.10	0.281
603.55	0.283
604.00	0.291
604.45	0.291
604.90	0.292
605.35	0.298
605.80	0.299
606.25	0.301
606.70	0.306
607.15	0.308
607.60	0.311
608.05	0.312
608.50	0.315
608.95	0.317
609.39	0.320
609.84	0.324
610.29	0.324
610.74	0.324
611.19	0.326
611.64	0.330
612.09	0.332
612.54	0.333
612.99	0.336
613.44	0.335
613.88	0.335
614.33	0.337
614.78	0.342
615.23	0.342
615.68	0.342
616.13	0.344
616.58	0.344
617.03	0.344
617.47	0.345
617.92	0.347
618.37	0.348
618.82	0.349
619.27	0.348
619.72	0.352
620.17	0.349
620.61	0.351
621.06	0.351
621.51	0.351
621.96	0.354
622.41	0.355
622.86	0.354
623.30	0.357
623.75	0.358
624.20	0.357
624.65	0.358
625.10	0.362
625.54	0.359
625.99	0.359
626.44	0.363
626.89	0.362
627.34	0.364
627.78	0.367
628.23	0.367
628.68	0.367
629.13	0.368
629.58	0.373
630.02	0.373
630.47	0.375
630.92	0.377
631.37	0.382
631.81	0.382
632.26	0.384
632.71	0.387
633.16	0.391
633.61	0.392
634.05	0.398
634.50	0.399
634.95	0.404
635.40	0.405
635.84	0.408
636.29	0.412
636.74	0.416
637.18	0.419
637.63	0.423
638.08	0.426
638.53	0.428
638.97	0.433
639.42	0.437
639.87	0.444
640.32	0.447
640.76	0.451
641.21	0.455
641.66	0.459
642.10	0.466
642.55	0.470
643.00	0.475
643.44	0.479
643.89	0.485
644.34	0.491
644.79	0.498
645.23	0.503
645.68	0.507
646.13	0.514
646.57	0.517
647.02	0.524
647.47	0.529
647.91	0.531
648.36	0.535
648.81	0.544
649.25	0.549
649.70	0.555
650.15	0.560
650.59	0.568
651.04	0.571
651.48	0.574
651.93	0.585
652.38	0.589
652.82	0.590
653.27	0.593
653.72	0.603
654.16	0.608
654.61	0.613
655.06	0.614
655.50	0.621
655.95	0.627
656.39	0.630
656.84	0.632
657.29	0.639
657.73	0.640
658.18	0.647
658.62	0.652
659.07	0.655
659.52	0.657
659.96	0.664
660.41	0.667
660.85	0.668
661.30	0.670
661.74	0.678
662.19	0.680
662.64	0.682
663.08	0.685
663.53	0.686
663.97	0.687
664.42	0.688
664.86	0.689
665.31	0.691
665.75	0.693
666.20	0.691
666.65	0.690
667.09	0.693
667.54	0.688
667.98	0.688
668.43	0.690
668.87	0.683
669.32	0.682
669.76	0.678
670.21	0.672
670.65	0.667
671.10	0.661
671.54	0.658
671.99	0.654
672.43	0.642
672.88	0.635
673.32	0.627
673.77	0.621
674.21	0.609
674.66	0.596
675.10	0.591
675.55	0.579
675.99	0.568
676.44	0.560
676.88	0.545
677.33	0.532
677.77	0.520
678.22	0.506
678.66	0.494
679.11	0.481
679.55	0.466
679.99	0.455
680.44	0.442
680.88	0.426
681.33	0.414
681.77	0.400
682.22	0.386
682.66	0.376
683.11	0.363
683.55	0.350
683.99	0.339
684.44	0.328
684.88	0.317
685.33	0.303
685.77	0.292
686.21	0.281
686.66	0.270
687.10	0.258
687.55	0.247
687.99	0.237
688.44	0.229
688.88	0.219
689.32	0.212
689.77	0.202
690.21	0.195
690.65	0.183
691.10	0.177
691.54	0.172
691.99	0.166
692.43	0.157
692.87	0.153
693.32	0.145
693.76	0.139
694.20	0.134
694.65	0.127
695.09	0.121
695.53	0.116
695.98	0.112
696.42	0.109
696.86	0.107
697.31	0.102
697.75	0.096
698.19	0.093
698.64	0.090
699.08	0.087
699.52	0.085
699.97	0.081
700.41	0.078
700.85	0.077
701.30	0.071
701.74	0.069
702.18	0.067
702.63	0.064
703.07	0.061
703.51	0.060
703.96	0.060
704.40	0.058
704.84	0.058
705.28	0.055
705.73	0.053
706.17	0.052
706.61	0.052
707.06	0.049
707.50	0.047
707.94	0.047
708.38	0.042
708.83	0.045
709.27	0.043
709.71	0.042
710.15	0.042
710.60	0.041
711.04	0.038
711.48	0.041
711.92	0.038
712.37	0.038
712.81	0.037
713.25	0.039
713.69	0.035
714.13	0.034
714.58	0.035
715.02	0.034
715.46	0.033
715.90	0.033
716.35	0.034
716.79	0.034
717.23	0.034
717.67	0.032
718.11	0.030
718.56	0.035
719.00	0.031
719.44	0.030
719.88	0.034
720.32	0.034
720.76	0.030
721.21	0.032
721.65	0.031
722.09	0.031
722.53	0.031
722.97	0.030
723.41	0.029
723.86	0.028
724.30	0.029
724.74	0.031
725.18	0.029
725.62	0.030
726.06	0.030
726.50	0.032
726.95	0.031
727.39	0.031
727.83	0.031
728.27	0.031
728.71	0.029
729.15	0.030
729.59	0.028
730.03	0.029
730.48	0.029
730.92	0.032
731.36	0.028
731.80	0.031
732.24	0.035
732.68	0.032
733.12	0.031
733.56	0.031
734.00	0.034
734.44	0.030
734.89	0.033
735.33	0.030
735.77	0.033
736.21	0.030
736.65	0.032
737.09	0.035
737.53	0.033
737.97	0.033
738.41	0.032
738.85	0.031
739.29	0.031
739.73	0.033
740.17	0.030
740.61	0.033
741.05	0.033
741.49	0.032
741.93	0.032
742.37	0.032
742.81	0.032
743.26	0.030
743.70	0.030
744.14	0.033
744.58	0.032
745.02	0.031
745.46	0.032
745.90	0.031
746.34	0.032
746.78	0.033
747.22	0.032
747.66	0.031
748.10	0.032
748.54	0.032
748.98	0.031
749.42	0.032
749.86	0.032
750.29	0.032
750.73	0.034
751.17	0.032
751.61	0.033
752.05	0.030
752.49	0.031
752.93	0.028
753.37	0.031
753.81	0.032
754.25	0.031
754.69	0.033
755.13	0.034
755.57	0.031
756.01	0.029
756.45	0.029
756.89	0.030
757.33	0.031
757.77	0.031
758.21	0.033
758.64	0.029
759.08	0.029
759.52	0.032
759.96	0.031
760.40	0.029
760.84	0.031
761.28	0.030
761.72	0.030
762.16	0.028
762.60	0.032
763.03	0.031
763.47	0.032
763.91	0.031
764.35	0.029
764.79	0.030
765.23	0.032
765.67	0.029
766.11	0.032
766.54	0.030
766.98	0.029
767.42	0.030
767.86	0.033
768.30	0.031
768.74	0.028
769.17	0.030
769.61	0.029
770.05	0.031
770.49	0.033
770.93	0.030
771.37	0.033
771.80	0.029
772.24	0.027
772.68	0.030
773.12	0.028
773.56	0.030
774.00	0.031
774.43	0.031
774.87	0.028
775.31	0.031
775.75	0.031
776.19	0.027
776.62	0.031
777.06	0.029
777.50	0.030
777.94	0.030
778.37	0.030
778.81	0.029
779.25	0.030
779.69	0.033
780.13	0.028
780.56	0.029
781.00	0.031
781.44	0.031
781.88	0.030
782.31	0.027
782.75	0.028
783.19	0.028
783.63	0.030
784.06	0.029
784.50	0.029
784.94	0.034
785.37	0.027
785.81	0.029
786.25	0.028
786.69	0.030
787.12	0.030
787.56	0.030
788.00	0.030
788.43	0.028
788.87	0.031
789.31	0.029
789.75	0.029
790.18	0.029
790.62	0.028
791.06	0.031
791.49	0.031
791.93	0.026
792.37	0.027
792.80	0.032
793.24	0.025
793.68	0.030
794.11	0.031
794.55	0.030
794.99	0.028
795.42	0.032
795.86	0.031
796.30	0.031
796.73	0.029
797.17	0.027
797.61	0.029
798.04	0.029
798.48	0.027
798.91	0.029
799.35	0.029
799.79	0.029
800.22	0.027
800.66	0.026
801.10	0.032
801.53	0.031
801.97	0.029
802.40	0.026
802.84	0.027
803.28	0.025
803.71	0.027
804.15	0.030
804.58	0.028
805.02	0.031
805.46	0.026
805.89	0.032
806.33	0.034
806.76	0.028
807.20	0.030
807.63	0.029
808.07	0.028
808.51	0.029
808.94	0.026
809.38	0.029
809.81	0.028
810.25	0.027
810.68	0.028
811.12	0.030
811.55	0.030
811.99	0.031
812.42	0.029
812.86	0.031
813.29	0.027
813.73	0.033
814.17	0.025
814.60	0.030
815.04	0.027
815.47	0.026
815.91	0.026
816.34	0.031
816.78	0.029
817.21	0.031
817.65	0.030
818.08	0.027
818.52	0.026
818.95	0.031
819.39	0.032
819.82	0.026
820.25	0.031
820.69	0.030
821.12	0.031
821.56	0.030
821.99	0.032
822.43	0.029
822.86	0.031
823.30	0.027
823.73	0.028
824.17	0.032
824.60	0.032
825.04	0.032
825.47	0.032
825.90	0.026
826.34	0.033
826.77	0.032
827.21	0.032
827.64	0.029
828.08	0.031
828.51	0.031
828.94	0.033
829.38	0.036
829.81	0.034
830.25	0.037
830.68	0.031
831.11	0.033
831.55	0.035
831.98	0.038
832.42	0.036
832.85	0.036
833.28	0.038
833.72	0.037
834.15	0.040
834.58	0.035
835.02	0.035
835.45	0.037
835.88	0.037
836.32	0.035
836.75	0.035
837.19	0.037
837.62	0.035
838.05	0.037
838.49	0.035
838.92	0.034
839.35	0.036
839.79	0.034
840.22	0.037
840.65	0.038
841.09	0.039
841.52	0.039
841.95	0.036
842.39	0.036
842.82	0.038
843.25	0.038
843.68	0.040
844.12	0.042
844.55	0.037
844.98	0.037
845.42	0.037
845.85	0.040
846.28	0.039
846.71	0.035
847.15	0.032
847.58	0.034
848.01	0.038
848.45	0.036
848.88	0.035
849.31	0.035
849.74	0.035
850.18	0.036
850.61	0.040
851.04	0.041
851.47	0.038
851.91	0.038
852.34	0.038
852.77	0.040
853.20	0.043
853.64	0.043
854.07	0.039
854.50	0.036
854.93	0.037
855.36	0.040
855.80	0.038
856.23	0.043
856.66	0.042
857.09	0.045
857.52	0.043
857.96	0.043
858.39	0.043
858.82	0.038
859.25	0.041
859.68	0.035
860.12	0.041
860.55	0.037
860.98	0.043
861.41	0.045
861.84	0.043
862.27	0.044
862.71	0.043
863.14	0.041
863.57	0.044
864.00	0.040
864.43	0.035
864.86	0.048
865.30	0.042
865.73	0.044
866.16	0.038
866.59	0.043
867.02	0.037
867.45	0.042
867.88	0.050
868.31	0.048
868.75	0.040
869.18	0.044
869.61	0.046
870.04	0.042
870.47	0.047
870.90	0.049
871.33	0.045
871.76	0.045
872.19	0.039
872.62	0.048
873.06	0.044
873.49	0.038
873.92	0.049
874.35	0.050
874.78	0.047
875.21	0.044
875.64	0.045
876.07	0.055
876.50	0.049
876.93	0.043
877.36	0.050
877.79	0.041
878.22	0.042
878.65	0.047
879.08	0.060
879.51	0.046
879.94	0.046
880.37	0.045
880.80	0.050
881.23	0.052
881.67	0.045
882.10	0.046
882.53	0.049
882.96	0.053
883.39	0.054
883.82	0.050
884.25	0.050
884.68	0.052
885.11	0.051
885.54	0.056
885.97	0.046
886.39	0.045
886.82	0.049
887.25	0.055
887.68	0.052
888.11	0.050
888.54	0.048
888.97	0.046
889.40	0.051
889.83	0.056
890.26	0.057
890.69	0.050
891.12	0.050
891.55	0.055
891.98	0.055
892.41	0.056
892.84	0.061
893.27	0.055
893.70	0.048
894.13	0.055
894.56	0.056
894.98	0.055
895.41	0.055
895.84	0.060
896.27	0.054
896.70	0.055
897.13	0.055
897.56	0.054
897.99	0.055
898.42	0.057
898.85	0.059
899.27	0.063
899.70	0.060
900.13	0.055
900.56	0.058
900.99	0.059
901.42	0.055
901.85	0.057
902.28	0.062
902.70	0.059
903.13	0.058
903.56	0.061
903.99	0.057
904.42	0.059
904.85	0.058
905.27	0.060
905.70	0.062
906.13	0.060
906.56	0.061
906.99	0.061
907.42	0.056
907.84	0.060
908.27	0.063
908.70	0.057
909.13	0.059
909.56	0.058
909.98	0.057
910.41	0.056
910.84	0.059
911.27	0.057
911.70	0.059
912.12	0.057
912.55	0.061
912.98	0.059
913.41	0.059
913.84	0.055
914.26	0.058
914.69	0.055
915.12	0.062
915.55	0.058
915.97	0.061
916.40	0.060
916.83	0.057
917.26	0.060
917.68	0.063
918.11	0.067
918.54	0.064
918.97	0.060
919.39	0.061
919.82	0.063
920.25	0.061
920.67	0.060
921.10	0.061
921.53	0.066
921.96	0.062
922.38	0.061
922.81	0.064
923.24	0.066
923.66	0.065
924.09	0.066
924.52	0.065
924.94	0.068
925.37	0.072
925.80	0.066
926.22	0.068
926.65	0.068
927.08	0.067
927.50	0.071
927.93	0.074
928.36	0.072
928.78	0.074
929.21	0.074
929.64	0.077
930.06	0.075
930.49	0.077
930.92	0.075
931.34	0.078
931.77	0.079
932.20	0.077
932.62	0.074
933.05	0.075
933.47	0.080
933.90	0.079
934.33	0.082
934.75	0.083
935.18	0.084
935.61	0.086
936.03	0.084
936.46	0.086
936.88	0.090
937.31	0.089
937.73	0.093
938.16	0.095
938.59	0.096
939.01	0.102
939.44	0.102
939.86	0.098
940.29	0.098
940.71	0.106
941.14	0.101
941.57	0.105
941.99	0.110
942.42	0.108
942.84	0.110
943.27	0.110
943.69	0.115
944.12	0.120
944.54	0.119
944.97	0.112
945.39	0.130
945.82	0.119
946.24	0.123
946.67	0.127
947.09	0.127
947.52	0.125
947.94	0.128
948.37	0.136
948.79	0.136
949.22	0.141
949.64	0.141
950.07	0.147
950.49	0.152
950.92	0.144
951.34	0.151
951.77	0.154
952.19	0.154
952.62	0.159
953.04	0.162
953.47	0.168
953.89	0.171
954.32	0.171
954.74	0.177
955.17	0.175
955.59	0.181
956.01	0.188
956.44	0.182
956.86	0.186
957.29	0.187
957.71	0.200
958.14	0.191
958.56	0.192
958.98	0.198
959.41	0.200
959.83	0.201
960.26	0.208
960.68	0.211
961.10	0.204
961.53	0.206
961.95	0.209
962.38	0.214
962.80	0.213
963.22	0.211
963.65	0.219
964.07	0.220
964.50	0.217
964.92	0.219
965.34	0.217
965.77	0.213
966.19	0.213
966.61	0.215
967.04	0.221
967.46	0.216
967.88	0.218
968.31	0.222
968.73	0.217
969.15	0.221
969.58	0.224
970.00	0.221
970.42	0.223
970.85	0.223
971.27	0.226
971.69	0.222
972.12	0.216
972.54	0.223
972.96	0.223
973.39	0.227
973.81	0.231
974.23	0.232
974.65	0.232
975.08	0.228
975.50	0.222
975.92	0.231
976.35	0.224
976.77	0.222
977.19	0.227
977.61	0.228
978.04	0.228
978.46	0.227
978.88	0.226
979.30	0.227
979.73	0.223
980.15	0.229
980.57	0.228
980.99	0.229
981.42	0.228
981.84	0.234
982.26	0.231
982.68	0.231
983.11	0.232
983.53	0.230
983.95	0.234
984.37	0.223
984.79	0.227
985.22	0.223
985.64	0.229
986.06	0.218
986.48	0.228
986.90	0.225
987.33	0.225
987.75	0.227
988.17	0.228
988.59	0.224
989.01	0.217
989.43	0.220
989.86	0.223
990.28	0.215
990.70	0.219
991.12	0.221
991.54	0.220
991.96	0.217
992.39	0.212
992.81	0.215
993.23	0.220
993.65	0.215
994.07	0.213
994.49	0.213
994.91	0.210
995.34	0.211
995.76	0.216
996.18	0.212
996.60	0.206
997.02	0.213
997.44	0.208
997.86	0.206
998.28	0.202
998.70	0.210
999.12	0.207
999.55	0.210
999.97	0.207
1000.39	0.202
1000.81	0.202
1001.23	0.197
1001.65	0.203
1002.07	0.197
1002.49	0.198
1002.91	0.197
1003.33	0.201
1003.75	0.202
1004.17	0.197
1004.59	0.201
1005.01	0.197
1005.43	0.198
1005.85	0.195
1006.28	0.191
1006.70	0.189
1007.12	0.190
1007.54	0.188
1007.96	0.191
1008.38	0.186
1008.80	0.191
1009.22	0.184
1009.64	0.188
1010.06	0.191
1010.48	0.184
1010.90	0.186
1011.32	0.183
1011.74	0.179
1012.16	0.181
1012.58	0.185
1013.00	0.175
1013.42	0.170
1013.84	0.177
1014.26	0.174
1014.67	0.175
1015.09	0.165
1015.51	0.176
1015.93	0.179
1016.35	0.158
1016.77	0.165
1017.19	0.159
1017.61	0.160
1018.03	0.165
1018.45	0.167
1018.87	0.168
1019.29	0.157
1019.71	0.166
1020.13	0.163
1020.55	0.164
1020.97	0.152
1021.38	0.158
1021.80	0.152
1022.22	0.158
1022.64	0.147
1023.06	0.170
1023.48	0.155
1023.90	0.152
1024.32	0.142
1024.74	0.141
1025.15	0.148
1025.57	0.158
1025.99	0.159
1026.41	0.150
1026.83	0.153
1027.25	0.146
1027.67	0.148
1028.08	0.147
1028.50	0.157
1028.92	0.145
1029.34	0.147
1029.76	0.149
1030.18	0.151
1030.60	0.149
1031.01	0.143
1031.43	0.133
1031.85	0.129
1032.27	0.141
1032.69	0.125
1033.10	0.140
1033.52	0.139
1033.94	0.142
1034.36	0.125
1034.78	0.147
1035.19	0.129
1035.61	0.137
1036.03	0.136
1036.45	0.129
1036.87	0.133
1037.28	0.122
1037.70	0.131
1038.12	0.124
1038.54	0.108
1038.95	0.122
1039.37	0.119
1039.79	0.120
1040.21	0.119
1040.62	0.093
1041.04	0.136
1041.46	0.136
1041.88	0.122
1042.29	0.119
1042.71	0.118
1043.13	0.114
1043.55	0.124
1043.96	0.113
1044.38	0.105
1044.80	0.128
1045.21	0.112
1045.63	0.112
1046.05	0.116
1046.47	0.107
1046.88	0.118
1047.30	0.096
1047.72	0.119
1048.13	0.101
1048.55	0.120
1048.97	0.124
1049.38	0.114
1049.80	0.102
1050.22	0.120
1050.63	0.105
1051.05	0.089
1051.47	0.116
1051.88	0.095
1052.30	0.110
1052.72	0.118
1053.13	0.107
1053.55	0.084
1053.97	0.103
1054.38	0.095
1054.80	0.111
1055.21	0.105
1055.63	0.098
1056.05	0.109
1056.46	0.108
1056.88	0.127
1057.29	0.115
1057.71	0.118
1058.13	0.094
1058.54	0.087
1058.96	0.096
1059.37	0.129
1059.79	0.112
1060.21	0.120
1060.62	0.094
1061.04	0.119
1061.45	0.113
1061.87	0.100
1062.28	0.126
1062.70	0.102
1063.12	0.142
1063.53	0.106
1063.95	0.092
1064.36	0.116
1064.78	0.090
1065.19	0.125
1065.61	0.115
1066.02	0.018
1066.44	0.115
1066.85	0.098
1067.27	0.067
1067.68	0.035
1068.10	0.107
1068.51	0.127
1068.93	0.078
1069.35	0.088
1069.76	0.137
1070.17	0.149
1070.59	0.079
1071.00	0.125
1071.42	0.152
1071.83	0.157
1072.25	0.121
1072.66	0.116
1073.08	0.080
1073.49	0.109
1073.91	0.159
1074.32	0.231
1074.74	0.218
1075.15	0.079
1075.57	0.164
1075.98	0.146
1076.40	0.150
1076.81	0.065
1077.22	0.284
1077.64	0.182
1078.05	0.265
1078.47	-0.002
1078.88	0.045
1079.30	0.125
1079.71	0.150
1080.12	0.053
1080.54	0.293
1080.95	0.381
1081.37	0.096
1081.78	0.183
1082.19	0.292
1082.61	0.189
1083.02	0.303
1083.44	0.256
1083.85	0.118
1084.26	0.044
1084.68	0.339
1085.09	0.305
1085.50	0.161
1085.92	0.027
1086.33	0.041
1086.74	0.183
1087.16	0.225
1087.57	0.786
1087.98	0.496
1088.40	0.216
1088.81	0.122
1089.22	0.223
1089.64	0.112
1090.05	0.419
1090.46	0.226
1090.88	0.474
1091.29	0.511
1091.70	0.404
1092.12	-0.120
1092.53	-0.000
1092.94	0.209
1093.36	0.343
1093.77	0.703
1094.18	0.230
1094.59	0.315
1095.01	0.244
1095.42	0.135
1095.83	-0.000
1096.25	0.291
1096.66	0.454
1097.07	0.468
1097.48	0.614
1097.90	0.150
1098.31	0.852
1098.72	0.512
1099.13	0.003
>>>>>End Processed Spectral Data<<<<<
