SpectraSuite Data File
++++++++++++++++++++++++++++++++++++
Date: Wed May 04 16:02:00 CEST 2016
User: spectrasuite
Dark Spectrum Present: Yes
Reference Spectrum Present: Yes
Number of Sampled Component Spectra: 1
Spectrometers: HR+C0708
Integration Time (usec): 1000 (HR+C0708)
Spectra Averaged: 10 (HR+C0708)
Boxcar Smoothing: 0 (HR+C0708)
Correct for Electrical Dark: No (HR+C0708)
Strobe/Lamp Enabled: No (HR+C0708)
Correct for Detector Non-linearity: No (HR+C0708)
Correct for Stray Light: No (HR+C0708)
Number of Pixels in Processed Spectrum: 2048
>>>>>Begin Processed Spectral Data<<<<<
188.76	-0.000
189.23	-0.000
189.70	-0.000
190.17	-0.000
190.64	-0.000
191.12	-0.000
191.59	-0.000
192.06	-0.000
192.53	-0.000
193.01	-0.000
193.48	-0.000
193.95	-0.000
194.42	-0.000
194.90	-0.000
195.37	-0.000
195.84	-0.000
196.31	-0.000
196.78	-0.000
197.26	-0.000
197.73	-0.000
198.20	-0.000
198.67	-0.000
199.14	-0.000
199.62	-0.000
200.09	-0.000
200.56	-0.000
201.03	-0.000
201.50	-0.000
201.97	-0.000
202.45	-0.000
202.92	-0.000
203.39	-0.000
203.86	-0.000
204.33	-0.000
204.80	-0.000
205.28	-0.000
205.75	-0.000
206.22	-0.000
206.69	-0.000
207.16	-0.000
207.63	-0.000
208.11	-0.000
208.58	-0.000
209.05	-0.000
209.52	-0.000
209.99	-0.000
210.46	0.925
210.93	-0.000
211.41	-0.000
211.88	-0.000
212.35	-0.000
212.82	-0.000
213.29	-0.000
213.76	-0.000
214.23	-0.000
214.70	-0.000
215.18	-0.000
215.65	1.952
216.12	-0.000
216.59	-0.000
217.06	1.177
217.53	-0.000
218.00	-0.000
218.47	-0.000
218.94	-0.000
219.41	2.775
219.89	-0.000
220.36	1.379
220.83	1.326
221.30	-0.000
221.77	-0.000
222.24	1.025
222.71	-0.000
223.18	-0.000
223.65	0.958
224.12	0.990
224.59	-0.000
225.06	-0.000
225.54	1.823
226.01	-0.000
226.48	-0.000
226.95	-0.000
227.42	1.519
227.89	-0.000
228.36	-0.000
228.83	-0.000
229.30	1.950
229.77	-0.000
230.24	-0.000
230.71	1.984
231.18	2.795
231.65	-0.000
232.12	-0.000
232.59	2.479
233.06	-0.000
233.53	-0.000
234.00	2.307
234.47	-0.000
234.94	-0.000
235.41	2.757
235.88	2.674
236.35	-0.000
236.82	-0.000
237.29	2.537
237.76	3.010
238.23	-0.000
238.70	-0.000
239.17	2.585
239.64	-0.000
240.11	-0.000
240.58	2.614
241.05	-0.000
241.52	-0.000
241.99	2.773
242.46	2.658
242.93	3.049
243.40	-0.000
243.87	-0.000
244.34	2.472
244.81	3.353
245.28	4.152
245.75	3.036
246.22	-0.000
246.69	-0.000
247.16	3.059
247.63	2.659
248.10	-0.000
248.57	-0.000
249.04	3.617
249.51	2.713
249.98	-0.000
250.45	-0.000
250.92	2.834
251.39	2.774
251.85	2.594
252.32	2.337
252.79	2.096
253.26	2.002
253.73	1.875
254.20	1.718
254.67	1.613
255.14	1.560
255.61	1.456
256.08	1.374
256.55	1.324
257.02	1.273
257.49	1.226
257.95	1.180
258.42	1.145
258.89	1.101
259.36	1.074
259.83	1.044
260.30	1.016
260.77	0.994
261.24	0.967
261.71	0.942
262.17	0.931
262.64	0.908
263.11	0.890
263.58	0.869
264.05	0.859
264.52	0.842
264.99	0.829
265.46	0.815
265.92	0.802
266.39	0.790
266.86	0.778
267.33	0.770
267.80	0.753
268.27	0.749
268.74	0.743
269.20	0.730
269.67	0.722
270.14	0.710
270.61	0.703
271.08	0.692
271.55	0.688
272.01	0.684
272.48	0.671
272.95	0.666
273.42	0.660
273.89	0.654
274.36	0.647
274.82	0.644
275.29	0.637
275.76	0.633
276.23	0.628
276.70	0.622
277.16	0.619
277.63	0.617
278.10	0.610
278.57	0.607
279.04	0.607
279.50	0.601
279.97	0.597
280.44	0.596
280.91	0.593
281.38	0.588
281.84	0.586
282.31	0.586
282.78	0.586
283.25	0.588
283.72	0.585
284.18	0.581
284.65	0.580
285.12	0.580
285.59	0.578
286.05	0.578
286.52	0.579
286.99	0.580
287.46	0.579
287.92	0.575
288.39	0.578
288.86	0.578
289.33	0.579
289.79	0.576
290.26	0.575
290.73	0.567
291.20	0.566
291.66	0.565
292.13	0.564
292.60	0.558
293.07	0.554
293.53	0.549
294.00	0.546
294.47	0.540
294.93	0.538
295.40	0.530
295.87	0.524
296.34	0.517
296.80	0.509
297.27	0.500
297.74	0.494
298.20	0.489
298.67	0.479
299.14	0.475
299.60	0.466
300.07	0.457
300.54	0.450
301.01	0.444
301.47	0.435
301.94	0.429
302.41	0.422
302.87	0.415
303.34	0.407
303.81	0.403
304.27	0.395
304.74	0.389
305.21	0.382
305.67	0.377
306.14	0.369
306.61	0.365
307.07	0.359
307.54	0.355
308.01	0.346
308.47	0.343
308.94	0.336
309.40	0.335
309.87	0.331
310.34	0.328
310.80	0.325
311.27	0.318
311.74	0.318
312.20	0.317
312.67	0.312
313.13	0.308
313.60	0.302
314.07	0.303
314.53	0.300
315.00	0.294
315.47	0.297
315.93	0.296
316.40	0.291
316.86	0.290
317.33	0.286
317.80	0.287
318.26	0.284
318.73	0.283
319.19	0.285
319.66	0.279
320.13	0.278
320.59	0.279
321.06	0.279
321.52	0.277
321.99	0.276
322.45	0.273
322.92	0.272
323.39	0.272
323.85	0.269
324.32	0.270
324.78	0.263
325.25	0.261
325.71	0.265
326.18	0.261
326.64	0.261
327.11	0.258
327.58	0.257
328.04	0.258
328.51	0.254
328.97	0.255
329.44	0.254
329.90	0.248
330.37	0.247
330.83	0.250
331.30	0.248
331.76	0.242
332.23	0.245
332.69	0.240
333.16	0.239
333.62	0.236
334.09	0.235
334.56	0.232
335.02	0.231
335.49	0.229
335.95	0.225
336.42	0.222
336.88	0.220
337.35	0.220
337.81	0.217
338.28	0.219
338.74	0.218
339.20	0.219
339.67	0.218
340.13	0.221
340.60	0.215
341.06	0.212
341.53	0.209
341.99	0.209
342.46	0.206
342.92	0.205
343.39	0.203
343.85	0.200
344.32	0.202
344.78	0.201
345.25	0.205
345.71	0.202
346.17	0.203
346.64	0.204
347.10	0.201
347.57	0.198
348.03	0.194
348.50	0.195
348.96	0.196
349.43	0.196
349.89	0.197
350.35	0.196
350.82	0.196
351.28	0.196
351.75	0.194
352.21	0.196
352.67	0.191
353.14	0.191
353.60	0.188
354.07	0.187
354.53	0.189
355.00	0.185
355.46	0.184
355.92	0.180
356.39	0.183
356.85	0.178
357.31	0.177
357.78	0.177
358.24	0.177
358.71	0.178
359.17	0.177
359.63	0.173
360.10	0.174
360.56	0.174
361.03	0.173
361.49	0.172
361.95	0.171
362.42	0.171
362.88	0.173
363.34	0.175
363.81	0.173
364.27	0.171
364.73	0.173
365.20	0.171
365.66	0.169
366.12	0.170
366.59	0.171
367.05	0.168
367.51	0.171
367.98	0.168
368.44	0.168
368.90	0.168
369.37	0.169
369.83	0.169
370.29	0.164
370.76	0.165
371.22	0.161
371.68	0.165
372.15	0.165
372.61	0.164
373.07	0.164
373.54	0.163
374.00	0.161
374.46	0.163
374.92	0.162
375.39	0.165
375.85	0.164
376.31	0.164
376.78	0.162
377.24	0.162
377.70	0.160
378.16	0.162
378.63	0.162
379.09	0.162
379.55	0.162
380.01	0.163
380.48	0.162
380.94	0.160
381.40	0.158
381.87	0.161
382.33	0.159
382.79	0.156
383.25	0.158
383.72	0.160
384.18	0.160
384.64	0.159
385.10	0.157
385.56	0.157
386.03	0.159
386.49	0.157
386.95	0.157
387.41	0.158
387.88	0.155
388.34	0.153
388.80	0.158
389.26	0.157
389.72	0.158
390.19	0.152
390.65	0.153
391.11	0.152
391.57	0.155
392.04	0.155
392.50	0.152
392.96	0.153
393.42	0.153
393.88	0.156
394.34	0.153
394.81	0.154
395.27	0.153
395.73	0.149
396.19	0.152
396.65	0.154
397.12	0.149
397.58	0.149
398.04	0.148
398.50	0.152
398.96	0.153
399.42	0.151
399.89	0.152
400.35	0.154
400.81	0.148
401.27	0.153
401.73	0.148
402.19	0.149
402.65	0.146
403.12	0.148
403.58	0.150
404.04	0.146
404.50	0.143
404.96	0.143
405.42	0.147
405.88	0.143
406.34	0.147
406.81	0.146
407.27	0.144
407.73	0.140
408.19	0.141
408.65	0.140
409.11	0.141
409.57	0.140
410.03	0.145
410.49	0.144
410.96	0.141
411.42	0.145
411.88	0.139
412.34	0.136
412.80	0.140
413.26	0.142
413.72	0.139
414.18	0.140
414.64	0.141
415.10	0.140
415.56	0.141
416.02	0.137
416.48	0.137
416.95	0.140
417.41	0.137
417.87	0.140
418.33	0.137
418.79	0.136
419.25	0.139
419.71	0.136
420.17	0.135
420.63	0.134
421.09	0.132
421.55	0.135
422.01	0.135
422.47	0.138
422.93	0.140
423.39	0.135
423.85	0.134
424.31	0.135
424.77	0.136
425.23	0.135
425.69	0.138
426.15	0.138
426.61	0.136
427.07	0.132
427.53	0.134
427.99	0.133
428.45	0.135
428.91	0.133
429.37	0.132
429.83	0.133
430.29	0.134
430.75	0.136
431.21	0.139
431.67	0.139
432.13	0.137
432.59	0.132
433.05	0.134
433.51	0.130
433.97	0.129
434.43	0.139
434.89	0.137
435.35	0.133
435.81	0.137
436.27	0.137
436.73	0.132
437.19	0.137
437.65	0.134
438.11	0.133
438.57	0.133
439.03	0.134
439.48	0.136
439.94	0.132
440.40	0.131
440.86	0.130
441.32	0.131
441.78	0.131
442.24	0.131
442.70	0.134
443.16	0.131
443.62	0.131
444.08	0.131
444.54	0.131
444.99	0.132
445.45	0.129
445.91	0.126
446.37	0.128
446.83	0.129
447.29	0.128
447.75	0.129
448.21	0.132
448.67	0.130
449.12	0.128
449.58	0.128
450.04	0.130
450.50	0.129
450.96	0.128
451.42	0.129
451.88	0.131
452.34	0.127
452.79	0.130
453.25	0.134
453.71	0.130
454.17	0.127
454.63	0.130
455.09	0.126
455.55	0.129
456.00	0.127
456.46	0.127
456.92	0.127
457.38	0.128
457.84	0.128
458.30	0.128
458.75	0.126
459.21	0.127
459.67	0.125
460.13	0.128
460.59	0.126
461.04	0.127
461.50	0.127
461.96	0.128
462.42	0.126
462.88	0.125
463.33	0.127
463.79	0.127
464.25	0.125
464.71	0.128
465.17	0.126
465.62	0.126
466.08	0.128
466.54	0.128
467.00	0.127
467.46	0.131
467.91	0.129
468.37	0.127
468.83	0.130
469.29	0.127
469.74	0.125
470.20	0.127
470.66	0.128
471.12	0.127
471.57	0.126
472.03	0.127
472.49	0.127
472.95	0.128
473.40	0.128
473.86	0.129
474.32	0.126
474.78	0.127
475.23	0.130
475.69	0.128
476.15	0.131
476.60	0.127
477.06	0.129
477.52	0.128
477.98	0.126
478.43	0.129
478.89	0.125
479.35	0.131
479.80	0.128
480.26	0.125
480.72	0.126
481.18	0.127
481.63	0.127
482.09	0.127
482.55	0.123
483.00	0.124
483.46	0.127
483.92	0.127
484.37	0.124
484.83	0.126
485.29	0.127
485.74	0.124
486.20	0.126
486.66	0.128
487.11	0.126
487.57	0.125
488.03	0.125
488.48	0.127
488.94	0.126
489.40	0.125
489.85	0.125
490.31	0.127
490.77	0.124
491.22	0.126
491.68	0.126
492.13	0.126
492.59	0.127
493.05	0.125
493.50	0.124
493.96	0.125
494.42	0.126
494.87	0.125
495.33	0.123
495.78	0.124
496.24	0.126
496.70	0.126
497.15	0.126
497.61	0.127
498.06	0.124
498.52	0.124
498.98	0.123
499.43	0.124
499.89	0.126
500.34	0.122
500.80	0.125
501.25	0.122
501.71	0.124
502.17	0.122
502.62	0.122
503.08	0.120
503.53	0.122
503.99	0.125
504.44	0.123
504.90	0.121
505.36	0.121
505.81	0.124
506.27	0.121
506.72	0.122
507.18	0.124
507.63	0.122
508.09	0.124
508.54	0.121
509.00	0.123
509.45	0.123
509.91	0.121
510.36	0.122
510.82	0.125
511.27	0.122
511.73	0.124
512.19	0.125
512.64	0.120
513.10	0.125
513.55	0.122
514.01	0.122
514.46	0.123
514.92	0.123
515.37	0.124
515.83	0.123
516.28	0.121
516.73	0.122
517.19	0.122
517.64	0.123
518.10	0.123
518.55	0.122
519.01	0.123
519.46	0.121
519.92	0.120
520.37	0.120
520.83	0.123
521.28	0.118
521.74	0.119
522.19	0.121
522.65	0.120
523.10	0.120
523.55	0.122
524.01	0.121
524.46	0.122
524.92	0.119
525.37	0.122
525.83	0.121
526.28	0.120
526.73	0.122
527.19	0.121
527.64	0.121
528.10	0.121
528.55	0.121
529.01	0.123
529.46	0.121
529.91	0.121
530.37	0.121
530.82	0.122
531.28	0.120
531.73	0.121
532.18	0.121
532.64	0.121
533.09	0.123
533.54	0.122
534.00	0.124
534.45	0.123
534.91	0.120
535.36	0.121
535.81	0.120
536.27	0.120
536.72	0.122
537.17	0.123
537.63	0.122
538.08	0.121
538.54	0.124
538.99	0.125
539.44	0.121
539.90	0.123
540.35	0.122
540.80	0.121
541.26	0.125
541.71	0.126
542.16	0.126
542.62	0.127
543.07	0.127
543.52	0.125
543.98	0.124
544.43	0.125
544.88	0.125
545.34	0.126
545.79	0.125
546.24	0.126
546.69	0.124
547.15	0.127
547.60	0.128
548.05	0.129
548.51	0.129
548.96	0.128
549.41	0.127
549.86	0.127
550.32	0.128
550.77	0.129
551.22	0.130
551.68	0.129
552.13	0.129
552.58	0.129
553.03	0.132
553.49	0.130
553.94	0.131
554.39	0.132
554.84	0.134
555.30	0.132
555.75	0.134
556.20	0.133
556.65	0.134
557.11	0.135
557.56	0.135
558.01	0.138
558.46	0.134
558.92	0.136
559.37	0.139
559.82	0.138
560.27	0.136
560.72	0.138
561.18	0.139
561.63	0.139
562.08	0.140
562.53	0.139
562.99	0.140
563.44	0.143
563.89	0.141
564.34	0.143
564.79	0.143
565.25	0.144
565.70	0.144
566.15	0.143
566.60	0.146
567.05	0.146
567.50	0.146
567.96	0.147
568.41	0.148
568.86	0.148
569.31	0.149
569.76	0.150
570.21	0.151
570.67	0.148
571.12	0.150
571.57	0.151
572.02	0.152
572.47	0.153
572.92	0.153
573.37	0.158
573.83	0.155
574.28	0.158
574.73	0.156
575.18	0.157
575.63	0.157
576.08	0.158
576.53	0.158
576.98	0.160
577.44	0.162
577.89	0.162
578.34	0.164
578.79	0.162
579.24	0.163
579.69	0.164
580.14	0.167
580.59	0.167
581.04	0.168
581.49	0.169
581.95	0.171
582.40	0.172
582.85	0.174
583.30	0.175
583.75	0.178
584.20	0.177
584.65	0.179
585.10	0.182
585.55	0.182
586.00	0.182
586.45	0.184
586.90	0.185
587.35	0.186
587.80	0.189
588.25	0.189
588.71	0.190
589.16	0.195
589.61	0.194
590.06	0.196
590.51	0.198
590.96	0.198
591.41	0.200
591.86	0.202
592.31	0.206
592.76	0.205
593.21	0.206
593.66	0.208
594.11	0.210
594.56	0.211
595.01	0.214
595.46	0.214
595.91	0.218
596.36	0.218
596.81	0.223
597.26	0.222
597.71	0.226
598.16	0.226
598.61	0.229
599.06	0.228
599.51	0.229
599.96	0.233
600.41	0.235
600.86	0.237
601.31	0.238
601.76	0.240
602.21	0.242
602.65	0.246
603.10	0.246
603.55	0.247
604.00	0.251
604.45	0.250
604.90	0.249
605.35	0.253
605.80	0.252
606.25	0.255
606.70	0.259
607.15	0.260
607.60	0.262
608.05	0.263
608.50	0.263
608.95	0.264
609.39	0.267
609.84	0.266
610.29	0.270
610.74	0.269
611.19	0.271
611.64	0.271
612.09	0.272
612.54	0.273
612.99	0.275
613.44	0.273
613.88	0.277
614.33	0.275
614.78	0.279
615.23	0.280
615.68	0.280
616.13	0.278
616.58	0.277
617.03	0.281
617.47	0.282
617.92	0.283
618.37	0.284
618.82	0.282
619.27	0.283
619.72	0.286
620.17	0.286
620.61	0.285
621.06	0.287
621.51	0.283
621.96	0.285
622.41	0.289
622.86	0.286
623.30	0.290
623.75	0.290
624.20	0.292
624.65	0.290
625.10	0.291
625.54	0.290
625.99	0.291
626.44	0.295
626.89	0.295
627.34	0.296
627.78	0.297
628.23	0.299
628.68	0.300
629.13	0.301
629.58	0.301
630.02	0.303
630.47	0.303
630.92	0.305
631.37	0.308
631.81	0.309
632.26	0.311
632.71	0.311
633.16	0.314
633.61	0.313
634.05	0.317
634.50	0.317
634.95	0.322
635.40	0.324
635.84	0.326
636.29	0.325
636.74	0.328
637.18	0.330
637.63	0.331
638.08	0.334
638.53	0.338
638.97	0.339
639.42	0.342
639.87	0.345
640.32	0.347
640.76	0.349
641.21	0.354
641.66	0.355
642.10	0.358
642.55	0.359
643.00	0.364
643.44	0.366
643.89	0.368
644.34	0.373
644.79	0.376
645.23	0.378
645.68	0.379
646.13	0.383
646.57	0.389
647.02	0.389
647.47	0.391
647.91	0.392
648.36	0.399
648.81	0.399
649.25	0.403
649.70	0.406
650.15	0.408
650.59	0.412
651.04	0.415
651.48	0.416
651.93	0.420
652.38	0.423
652.82	0.425
653.27	0.424
653.72	0.427
654.16	0.429
654.61	0.432
655.06	0.432
655.50	0.435
655.95	0.433
656.39	0.436
656.84	0.445
657.29	0.452
657.73	0.448
658.18	0.445
658.62	0.450
659.07	0.451
659.52	0.452
659.96	0.455
660.41	0.456
660.85	0.456
661.30	0.460
661.74	0.458
662.19	0.458
662.64	0.461
663.08	0.459
663.53	0.462
663.97	0.461
664.42	0.458
664.86	0.459
665.31	0.462
665.75	0.460
666.20	0.459
666.65	0.459
667.09	0.458
667.54	0.458
667.98	0.454
668.43	0.453
668.87	0.452
669.32	0.450
669.76	0.445
670.21	0.444
670.65	0.439
671.10	0.433
671.54	0.433
671.99	0.430
672.43	0.423
672.88	0.417
673.32	0.413
673.77	0.410
674.21	0.405
674.66	0.396
675.10	0.390
675.55	0.384
675.99	0.381
676.44	0.372
676.88	0.368
677.33	0.360
677.77	0.353
678.22	0.345
678.66	0.339
679.11	0.331
679.55	0.326
679.99	0.316
680.44	0.310
680.88	0.304
681.33	0.297
681.77	0.289
682.22	0.281
682.66	0.276
683.11	0.265
683.55	0.262
683.99	0.255
684.44	0.249
684.88	0.243
685.33	0.236
685.77	0.227
686.21	0.223
686.66	0.215
687.10	0.209
687.55	0.205
687.99	0.202
688.44	0.196
688.88	0.186
689.32	0.185
689.77	0.180
690.21	0.176
690.65	0.171
691.10	0.167
691.54	0.165
691.99	0.159
692.43	0.156
692.87	0.154
693.32	0.149
693.76	0.144
694.20	0.143
694.65	0.141
695.09	0.134
695.53	0.133
695.98	0.131
696.42	0.130
696.86	0.129
697.31	0.125
697.75	0.121
698.19	0.123
698.64	0.119
699.08	0.118
699.52	0.115
699.97	0.112
700.41	0.113
700.85	0.112
701.30	0.109
701.74	0.108
702.18	0.105
702.63	0.103
703.07	0.103
703.51	0.102
703.96	0.101
704.40	0.102
704.84	0.099
705.28	0.099
705.73	0.097
706.17	0.097
706.61	0.097
707.06	0.095
707.50	0.096
707.94	0.097
708.38	0.093
708.83	0.095
709.27	0.093
709.71	0.094
710.15	0.092
710.60	0.092
711.04	0.089
711.48	0.092
711.92	0.091
712.37	0.089
712.81	0.089
713.25	0.090
713.69	0.090
714.13	0.086
714.58	0.087
715.02	0.088
715.46	0.087
715.90	0.087
716.35	0.087
716.79	0.089
717.23	0.087
717.67	0.087
718.11	0.085
718.56	0.086
719.00	0.086
719.44	0.087
719.88	0.086
720.32	0.087
720.76	0.084
721.21	0.087
721.65	0.086
722.09	0.086
722.53	0.088
722.97	0.086
723.41	0.085
723.86	0.084
724.30	0.087
724.74	0.088
725.18	0.085
725.62	0.085
726.06	0.086
726.50	0.088
726.95	0.088
727.39	0.087
727.83	0.090
728.27	0.088
728.71	0.088
729.15	0.086
729.59	0.087
730.03	0.088
730.48	0.087
730.92	0.088
731.36	0.086
731.80	0.085
732.24	0.090
732.68	0.088
733.12	0.088
733.56	0.089
734.00	0.090
734.44	0.088
734.89	0.088
735.33	0.085
735.77	0.088
736.21	0.090
736.65	0.089
737.09	0.092
737.53	0.089
737.97	0.090
738.41	0.088
738.85	0.091
739.29	0.089
739.73	0.091
740.17	0.088
740.61	0.087
741.05	0.090
741.49	0.092
741.93	0.088
742.37	0.090
742.81	0.091
743.26	0.089
743.70	0.090
744.14	0.089
744.58	0.088
745.02	0.086
745.46	0.090
745.90	0.088
746.34	0.089
746.78	0.090
747.22	0.089
747.66	0.089
748.10	0.089
748.54	0.089
748.98	0.088
749.42	0.090
749.86	0.090
750.29	0.089
750.73	0.090
751.17	0.088
751.61	0.091
752.05	0.085
752.49	0.088
752.93	0.087
753.37	0.088
753.81	0.089
754.25	0.088
754.69	0.091
755.13	0.089
755.57	0.088
756.01	0.087
756.45	0.086
756.89	0.088
757.33	0.088
757.77	0.088
758.21	0.089
758.64	0.086
759.08	0.088
759.52	0.089
759.96	0.088
760.40	0.088
760.84	0.086
761.28	0.086
761.72	0.086
762.16	0.085
762.60	0.088
763.03	0.086
763.47	0.085
763.91	0.085
764.35	0.086
764.79	0.087
765.23	0.087
765.67	0.088
766.11	0.088
766.54	0.086
766.98	0.085
767.42	0.086
767.86	0.090
768.30	0.085
768.74	0.086
769.17	0.087
769.61	0.086
770.05	0.088
770.49	0.090
770.93	0.085
771.37	0.087
771.80	0.086
772.24	0.083
772.68	0.086
773.12	0.086
773.56	0.086
774.00	0.086
774.43	0.086
774.87	0.085
775.31	0.087
775.75	0.084
776.19	0.086
776.62	0.087
777.06	0.088
777.50	0.088
777.94	0.084
778.37	0.088
778.81	0.087
779.25	0.082
779.69	0.086
780.13	0.084
780.56	0.083
781.00	0.087
781.44	0.086
781.88	0.085
782.31	0.084
782.75	0.084
783.19	0.085
783.63	0.086
784.06	0.085
784.50	0.085
784.94	0.088
785.37	0.084
785.81	0.084
786.25	0.086
786.69	0.086
787.12	0.088
787.56	0.088
788.00	0.085
788.43	0.087
788.87	0.085
789.31	0.088
789.75	0.086
790.18	0.085
790.62	0.083
791.06	0.086
791.49	0.087
791.93	0.084
792.37	0.086
792.80	0.089
793.24	0.083
793.68	0.086
794.11	0.086
794.55	0.087
794.99	0.083
795.42	0.087
795.86	0.088
796.30	0.087
796.73	0.083
797.17	0.084
797.61	0.088
798.04	0.086
798.48	0.089
798.91	0.085
799.35	0.085
799.79	0.085
800.22	0.084
800.66	0.082
801.10	0.090
801.53	0.087
801.97	0.085
802.40	0.083
802.84	0.084
803.28	0.083
803.71	0.083
804.15	0.086
804.58	0.087
805.02	0.088
805.46	0.083
805.89	0.085
806.33	0.087
806.76	0.086
807.20	0.086
807.63	0.085
808.07	0.086
808.51	0.087
808.94	0.086
809.38	0.087
809.81	0.083
810.25	0.087
810.68	0.087
811.12	0.085
811.55	0.088
811.99	0.085
812.42	0.090
812.86	0.087
813.29	0.089
813.73	0.087
814.17	0.082
814.60	0.086
815.04	0.086
815.47	0.083
815.91	0.083
816.34	0.086
816.78	0.092
817.21	0.088
817.65	0.086
818.08	0.086
818.52	0.084
818.95	0.088
819.39	0.088
819.82	0.087
820.25	0.087
820.69	0.086
821.12	0.089
821.56	0.086
821.99	0.091
822.43	0.087
822.86	0.088
823.30	0.086
823.73	0.088
824.17	0.088
824.60	0.088
825.04	0.085
825.47	0.084
825.90	0.084
826.34	0.091
826.77	0.088
827.21	0.089
827.64	0.088
828.08	0.094
828.51	0.087
828.94	0.088
829.38	0.087
829.81	0.089
830.25	0.095
830.68	0.091
831.11	0.090
831.55	0.092
831.98	0.092
832.42	0.092
832.85	0.094
833.28	0.089
833.72	0.097
834.15	0.097
834.58	0.091
835.02	0.091
835.45	0.093
835.88	0.098
836.32	0.097
836.75	0.095
837.19	0.095
837.62	0.095
838.05	0.094
838.49	0.095
838.92	0.094
839.35	0.092
839.79	0.093
840.22	0.090
840.65	0.097
841.09	0.089
841.52	0.097
841.95	0.095
842.39	0.093
842.82	0.096
843.25	0.098
843.68	0.098
844.12	0.097
844.55	0.096
844.98	0.096
845.42	0.095
845.85	0.094
846.28	0.099
846.71	0.093
847.15	0.090
847.58	0.096
848.01	0.097
848.45	0.094
848.88	0.094
849.31	0.092
849.74	0.097
850.18	0.096
850.61	0.103
851.04	0.095
851.47	0.093
851.91	0.097
852.34	0.094
852.77	0.094
853.20	0.100
853.64	0.097
854.07	0.096
854.50	0.098
854.93	0.092
855.36	0.099
855.80	0.096
856.23	0.099
856.66	0.096
857.09	0.103
857.52	0.103
857.96	0.099
858.39	0.097
858.82	0.094
859.25	0.104
859.68	0.097
860.12	0.097
860.55	0.098
860.98	0.103
861.41	0.102
861.84	0.104
862.27	0.101
862.71	0.104
863.14	0.101
863.57	0.103
864.00	0.099
864.43	0.095
864.86	0.103
865.30	0.101
865.73	0.096
866.16	0.103
866.59	0.104
867.02	0.100
867.45	0.101
867.88	0.107
868.31	0.102
868.75	0.103
869.18	0.099
869.61	0.105
870.04	0.100
870.47	0.105
870.90	0.107
871.33	0.103
871.76	0.098
872.19	0.101
872.62	0.108
873.06	0.108
873.49	0.106
873.92	0.106
874.35	0.105
874.78	0.110
875.21	0.099
875.64	0.108
876.07	0.107
876.50	0.102
876.93	0.107
877.36	0.111
877.79	0.105
878.22	0.096
878.65	0.106
879.08	0.112
879.51	0.104
879.94	0.104
880.37	0.106
880.80	0.104
881.23	0.104
881.67	0.103
882.10	0.108
882.53	0.105
882.96	0.109
883.39	0.112
883.82	0.107
884.25	0.110
884.68	0.106
885.11	0.104
885.54	0.104
885.97	0.100
886.39	0.101
886.82	0.107
887.25	0.110
887.68	0.110
888.11	0.106
888.54	0.107
888.97	0.105
889.40	0.105
889.83	0.109
890.26	0.110
890.69	0.106
891.12	0.107
891.55	0.111
891.98	0.107
892.41	0.109
892.84	0.112
893.27	0.109
893.70	0.103
894.13	0.105
894.56	0.109
894.98	0.112
895.41	0.109
895.84	0.111
896.27	0.106
896.70	0.107
897.13	0.105
897.56	0.108
897.99	0.108
898.42	0.109
898.85	0.112
899.27	0.113
899.70	0.115
900.13	0.109
900.56	0.111
900.99	0.110
901.42	0.108
901.85	0.113
902.28	0.113
902.70	0.108
903.13	0.111
903.56	0.114
903.99	0.109
904.42	0.108
904.85	0.111
905.27	0.110
905.70	0.109
906.13	0.107
906.56	0.112
906.99	0.111
907.42	0.109
907.84	0.108
908.27	0.115
908.70	0.110
909.13	0.110
909.56	0.110
909.98	0.109
910.41	0.109
910.84	0.109
911.27	0.106
911.70	0.109
912.12	0.110
912.55	0.107
912.98	0.106
913.41	0.112
913.84	0.106
914.26	0.109
914.69	0.109
915.12	0.110
915.55	0.104
915.97	0.109
916.40	0.111
916.83	0.108
917.26	0.108
917.68	0.112
918.11	0.113
918.54	0.114
918.97	0.113
919.39	0.115
919.82	0.114
920.25	0.111
920.67	0.108
921.10	0.112
921.53	0.109
921.96	0.113
922.38	0.115
922.81	0.114
923.24	0.116
923.66	0.115
924.09	0.115
924.52	0.117
924.94	0.116
925.37	0.120
925.80	0.116
926.22	0.113
926.65	0.119
927.08	0.116
927.50	0.119
927.93	0.123
928.36	0.120
928.78	0.123
929.21	0.124
929.64	0.125
930.06	0.125
930.49	0.130
930.92	0.125
931.34	0.127
931.77	0.129
932.20	0.127
932.62	0.127
933.05	0.127
933.47	0.127
933.90	0.132
934.33	0.135
934.75	0.133
935.18	0.135
935.61	0.138
936.03	0.141
936.46	0.140
936.88	0.141
937.31	0.145
937.73	0.154
938.16	0.148
938.59	0.146
939.01	0.155
939.44	0.153
939.86	0.154
940.29	0.160
940.71	0.164
941.14	0.156
941.57	0.167
941.99	0.167
942.42	0.175
942.84	0.169
943.27	0.173
943.69	0.176
944.12	0.178
944.54	0.184
944.97	0.176
945.39	0.183
945.82	0.181
946.24	0.182
946.67	0.191
947.09	0.190
947.52	0.187
947.94	0.192
948.37	0.194
948.79	0.199
949.22	0.201
949.64	0.204
950.07	0.197
950.49	0.200
950.92	0.199
951.34	0.214
951.77	0.215
952.19	0.209
952.62	0.212
953.04	0.221
953.47	0.221
953.89	0.229
954.32	0.227
954.74	0.234
955.17	0.234
955.59	0.232
956.01	0.246
956.44	0.240
956.86	0.240
957.29	0.252
957.71	0.258
958.14	0.247
958.56	0.254
958.98	0.256
959.41	0.258
959.83	0.261
960.26	0.261
960.68	0.266
961.10	0.265
961.53	0.268
961.95	0.266
962.38	0.269
962.80	0.269
963.22	0.270
963.65	0.273
964.07	0.275
964.50	0.274
964.92	0.273
965.34	0.277
965.77	0.271
966.19	0.274
966.61	0.274
967.04	0.274
967.46	0.278
967.88	0.273
968.31	0.282
968.73	0.269
969.15	0.278
969.58	0.280
970.00	0.276
970.42	0.281
970.85	0.276
971.27	0.278
971.69	0.276
972.12	0.282
972.54	0.273
972.96	0.277
973.39	0.280
973.81	0.287
974.23	0.285
974.65	0.283
975.08	0.284
975.50	0.275
975.92	0.284
976.35	0.283
976.77	0.282
977.19	0.285
977.61	0.284
978.04	0.278
978.46	0.277
978.88	0.282
979.30	0.283
979.73	0.279
980.15	0.285
980.57	0.286
980.99	0.291
981.42	0.284
981.84	0.285
982.26	0.290
982.68	0.287
983.11	0.287
983.53	0.281
983.95	0.284
984.37	0.279
984.79	0.280
985.22	0.276
985.64	0.284
986.06	0.275
986.48	0.281
986.90	0.279
987.33	0.274
987.75	0.277
988.17	0.279
988.59	0.277
989.01	0.268
989.43	0.277
989.86	0.275
990.28	0.275
990.70	0.272
991.12	0.276
991.54	0.272
991.96	0.269
992.39	0.268
992.81	0.272
993.23	0.269
993.65	0.266
994.07	0.266
994.49	0.264
994.91	0.261
995.34	0.265
995.76	0.271
996.18	0.264
996.60	0.260
997.02	0.262
997.44	0.270
997.86	0.261
998.28	0.259
998.70	0.268
999.12	0.259
999.55	0.262
999.97	0.263
1000.39	0.259
1000.81	0.260
1001.23	0.245
1001.65	0.261
1002.07	0.253
1002.49	0.247
1002.91	0.255
1003.33	0.259
1003.75	0.246
1004.17	0.252
1004.59	0.259
1005.01	0.251
1005.43	0.242
1005.85	0.246
1006.28	0.238
1006.70	0.240
1007.12	0.242
1007.54	0.246
1007.96	0.242
1008.38	0.247
1008.80	0.245
1009.22	0.245
1009.64	0.230
1010.06	0.244
1010.48	0.246
1010.90	0.242
1011.32	0.244
1011.74	0.230
1012.16	0.234
1012.58	0.241
1013.00	0.235
1013.42	0.231
1013.84	0.227
1014.26	0.229
1014.67	0.228
1015.09	0.231
1015.51	0.234
1015.93	0.238
1016.35	0.219
1016.77	0.228
1017.19	0.229
1017.61	0.216
1018.03	0.220
1018.45	0.226
1018.87	0.225
1019.29	0.220
1019.71	0.214
1020.13	0.213
1020.55	0.221
1020.97	0.212
1021.38	0.223
1021.80	0.217
1022.22	0.219
1022.64	0.206
1023.06	0.222
1023.48	0.215
1023.90	0.219
1024.32	0.199
1024.74	0.201
1025.15	0.213
1025.57	0.211
1025.99	0.207
1026.41	0.217
1026.83	0.215
1027.25	0.212
1027.67	0.213
1028.08	0.208
1028.50	0.212
1028.92	0.203
1029.34	0.212
1029.76	0.214
1030.18	0.204
1030.60	0.214
1031.01	0.206
1031.43	0.197
1031.85	0.203
1032.27	0.203
1032.69	0.195
1033.10	0.216
1033.52	0.211
1033.94	0.204
1034.36	0.207
1034.78	0.211
1035.19	0.182
1035.61	0.192
1036.03	0.195
1036.45	0.201
1036.87	0.214
1037.28	0.189
1037.70	0.186
1038.12	0.198
1038.54	0.198
1038.95	0.205
1039.37	0.192
1039.79	0.192
1040.21	0.196
1040.62	0.173
1041.04	0.209
1041.46	0.212
1041.88	0.185
1042.29	0.191
1042.71	0.195
1043.13	0.183
1043.55	0.196
1043.96	0.185
1044.38	0.188
1044.80	0.216
1045.21	0.190
1045.63	0.195
1046.05	0.212
1046.47	0.189
1046.88	0.210
1047.30	0.224
1047.72	0.208
1048.13	0.184
1048.55	0.207
1048.97	0.204
1049.38	0.182
1049.80	0.159
1050.22	0.194
1050.63	0.196
1051.05	0.177
1051.47	0.198
1051.88	0.190
1052.30	0.186
1052.72	0.187
1053.13	0.200
1053.55	0.190
1053.97	0.205
1054.38	0.215
1054.80	0.208
1055.21	0.209
1055.63	0.182
1056.05	0.205
1056.46	0.224
1056.88	0.214
1057.29	0.190
1057.71	0.229
1058.13	0.201
1058.54	0.242
1058.96	0.202
1059.37	0.248
1059.79	0.254
1060.21	0.231
1060.62	0.219
1061.04	0.255
1061.45	0.248
1061.87	0.257
1062.28	0.314
1062.70	0.266
1063.12	0.285
1063.53	0.266
1063.95	0.327
1064.36	0.278
1064.78	0.236
1065.19	0.308
1065.61	0.367
1066.02	0.287
1066.44	0.261
1066.85	0.382
1067.27	0.366
1067.68	0.389
1068.10	0.403
1068.51	0.438
1068.93	0.389
1069.35	0.415
1069.76	0.480
1070.17	0.455
1070.59	0.321
1071.00	0.511
1071.42	0.706
1071.83	0.543
1072.25	0.411
1072.66	0.721
1073.08	0.859
1073.49	0.648
1073.91	0.552
1074.32	1.896
1074.74	1.226
1075.15	0.685
1075.57	0.846
1075.98	1.228
1076.40	0.858
1076.81	0.686
1077.22	-0.000
1077.64	-0.000
1078.05	-0.000
1078.47	-0.000
1078.88	-0.000
1079.30	1.451
1079.71	-0.000
1080.12	-0.000
1080.54	-0.000
1080.95	-0.000
1081.37	1.666
1081.78	-0.000
1082.19	-0.000
1082.61	-0.000
1083.02	-0.000
1083.44	-0.000
1083.85	-0.000
1084.26	-0.000
1084.68	-0.000
1085.09	-0.000
1085.50	-0.000
1085.92	-0.000
1086.33	-0.000
1086.74	-0.000
1087.16	-0.000
1087.57	-0.000
1087.98	-0.000
1088.40	-0.000
1088.81	-0.000
1089.22	-0.000
1089.64	-0.000
1090.05	-0.000
1090.46	-0.000
1090.88	-0.000
1091.29	-0.000
1091.70	-0.000
1092.12	-0.000
1092.53	-0.000
1092.94	-0.000
1093.36	-0.000
1093.77	-0.000
1094.18	-0.000
1094.59	-0.000
1095.01	-0.000
1095.42	-0.000
1095.83	-0.000
1096.25	-0.000
1096.66	-0.000
1097.07	-0.000
1097.48	-0.000
1097.90	-0.000
1098.31	-0.000
1098.72	-0.000
1099.13	-0.000
>>>>>End Processed Spectral Data<<<<<
