SpectraSuite Data File
++++++++++++++++++++++++++++++++++++
Date: Wed May 04 16:36:16 CEST 2016
User: spectrasuite
Dark Spectrum Present: Yes
Reference Spectrum Present: Yes
Number of Sampled Component Spectra: 1
Spectrometers: HR+C0708
Integration Time (usec): 1000 (HR+C0708)
Spectra Averaged: 10 (HR+C0708)
Boxcar Smoothing: 0 (HR+C0708)
Correct for Electrical Dark: No (HR+C0708)
Strobe/Lamp Enabled: No (HR+C0708)
Correct for Detector Non-linearity: No (HR+C0708)
Correct for Stray Light: No (HR+C0708)
Number of Pixels in Processed Spectrum: 2048
>>>>>Begin Processed Spectral Data<<<<<
188.76	-0.000
189.23	-0.000
189.70	-0.000
190.17	-0.000
190.64	-0.000
191.12	-0.000
191.59	-0.000
192.06	-0.000
192.53	-0.000
193.01	-0.000
193.48	-0.000
193.95	-0.000
194.42	-0.000
194.90	-0.000
195.37	-0.000
195.84	-0.000
196.31	-0.000
196.78	-0.000
197.26	-0.000
197.73	-0.000
198.20	-0.000
198.67	-0.000
199.14	-0.000
199.62	-0.000
200.09	-0.000
200.56	-0.000
201.03	-0.000
201.50	-0.000
201.97	-0.000
202.45	-0.000
202.92	-0.000
203.39	-0.000
203.86	-0.000
204.33	-0.000
204.80	-0.000
205.28	-0.000
205.75	-0.000
206.22	-0.000
206.69	-0.000
207.16	-0.000
207.63	-0.000
208.11	-0.000
208.58	-0.000
209.05	-0.000
209.52	-0.000
209.99	-0.000
210.46	-0.000
210.93	-0.000
211.41	-0.000
211.88	-0.000
212.35	-0.000
212.82	-0.000
213.29	-0.000
213.76	-0.000
214.23	-0.000
214.70	-0.000
215.18	-0.000
215.65	0.917
216.12	-0.000
216.59	-0.000
217.06	1.654
217.53	-0.000
218.00	-0.000
218.47	-0.000
218.94	-0.000
219.41	-0.000
219.89	-0.000
220.36	-0.000
220.83	-0.000
221.30	-0.000
221.77	-0.000
222.24	1.137
222.71	-0.000
223.18	-0.000
223.65	1.361
224.12	1.724
224.59	-0.000
225.06	-0.000
225.54	1.292
226.01	-0.000
226.48	-0.000
226.95	-0.000
227.42	1.907
227.89	-0.000
228.36	-0.000
228.83	1.914
229.30	2.348
229.77	-0.000
230.24	1.899
230.71	-0.000
231.18	-0.000
231.65	-0.000
232.12	-0.000
232.59	-0.000
233.06	-0.000
233.53	-0.000
234.00	-0.000
234.47	-0.000
234.94	-0.000
235.41	-0.000
235.88	-0.000
236.35	-0.000
236.82	2.735
237.29	2.801
237.76	-0.000
238.23	-0.000
238.70	-0.000
239.17	-0.000
239.64	-0.000
240.11	-0.000
240.58	2.562
241.05	-0.000
241.52	2.789
241.99	-0.000
242.46	3.407
242.93	3.009
243.40	-0.000
243.87	-0.000
244.34	2.665
244.81	3.018
245.28	-0.000
245.75	2.966
246.22	-0.000
246.69	-0.000
247.16	2.932
247.63	-0.000
248.10	3.337
248.57	-0.000
249.04	-0.000
249.51	3.009
249.98	-0.000
250.45	3.803
250.92	2.744
251.39	2.656
251.85	2.541
252.32	2.288
252.79	2.179
253.26	1.972
253.73	1.855
254.20	1.696
254.67	1.606
255.14	1.556
255.61	1.460
256.08	1.392
256.55	1.334
257.02	1.280
257.49	1.228
257.95	1.190
258.42	1.142
258.89	1.115
259.36	1.084
259.83	1.042
260.30	1.029
260.77	0.998
261.24	0.973
261.71	0.950
262.17	0.934
262.64	0.911
263.11	0.894
263.58	0.877
264.05	0.859
264.52	0.847
264.99	0.834
265.46	0.825
265.92	0.805
266.39	0.790
266.86	0.785
267.33	0.769
267.80	0.763
268.27	0.752
268.74	0.746
269.20	0.732
269.67	0.723
270.14	0.714
270.61	0.705
271.08	0.696
271.55	0.688
272.01	0.683
272.48	0.672
272.95	0.666
273.42	0.658
273.89	0.653
274.36	0.643
274.82	0.640
275.29	0.638
275.76	0.636
276.23	0.625
276.70	0.618
277.16	0.618
277.63	0.614
278.10	0.608
278.57	0.606
279.04	0.602
279.50	0.599
279.97	0.593
280.44	0.591
280.91	0.591
281.38	0.584
281.84	0.583
282.31	0.583
282.78	0.584
283.25	0.582
283.72	0.579
284.18	0.577
284.65	0.575
285.12	0.575
285.59	0.573
286.05	0.571
286.52	0.571
286.99	0.570
287.46	0.573
287.92	0.570
288.39	0.568
288.86	0.568
289.33	0.570
289.79	0.567
290.26	0.564
290.73	0.560
291.20	0.557
291.66	0.558
292.13	0.554
292.60	0.545
293.07	0.544
293.53	0.541
294.00	0.538
294.47	0.531
294.93	0.526
295.40	0.520
295.87	0.514
296.34	0.505
296.80	0.503
297.27	0.492
297.74	0.488
298.20	0.484
298.67	0.471
299.14	0.465
299.60	0.460
300.07	0.448
300.54	0.445
301.01	0.439
301.47	0.430
301.94	0.425
302.41	0.414
302.87	0.410
303.34	0.402
303.81	0.396
304.27	0.389
304.74	0.386
305.21	0.376
305.67	0.371
306.14	0.365
306.61	0.360
307.07	0.353
307.54	0.350
308.01	0.345
308.47	0.338
308.94	0.335
309.40	0.333
309.87	0.327
310.34	0.324
310.80	0.321
311.27	0.315
311.74	0.313
312.20	0.309
312.67	0.310
313.13	0.303
313.60	0.302
314.07	0.300
314.53	0.296
315.00	0.294
315.47	0.293
315.93	0.292
316.40	0.289
316.86	0.287
317.33	0.285
317.80	0.285
318.26	0.283
318.73	0.282
319.19	0.281
319.66	0.279
320.13	0.275
320.59	0.275
321.06	0.275
321.52	0.272
321.99	0.274
322.45	0.267
322.92	0.270
323.39	0.266
323.85	0.266
324.32	0.268
324.78	0.262
325.25	0.256
325.71	0.260
326.18	0.259
326.64	0.257
327.11	0.251
327.58	0.251
328.04	0.257
328.51	0.249
328.97	0.247
329.44	0.247
329.90	0.245
330.37	0.246
330.83	0.241
331.30	0.242
331.76	0.240
332.23	0.237
332.69	0.235
333.16	0.235
333.62	0.232
334.09	0.232
334.56	0.227
335.02	0.226
335.49	0.224
335.95	0.221
336.42	0.220
336.88	0.216
337.35	0.215
337.81	0.215
338.28	0.216
338.74	0.211
339.20	0.215
339.67	0.216
340.13	0.215
340.60	0.210
341.06	0.207
341.53	0.205
341.99	0.205
342.46	0.204
342.92	0.201
343.39	0.198
343.85	0.195
344.32	0.194
344.78	0.199
345.25	0.201
345.71	0.197
346.17	0.198
346.64	0.200
347.10	0.197
347.57	0.192
348.03	0.192
348.50	0.193
348.96	0.191
349.43	0.189
349.89	0.191
350.35	0.191
350.82	0.191
351.28	0.191
351.75	0.187
352.21	0.192
352.67	0.189
353.14	0.189
353.60	0.183
354.07	0.183
354.53	0.183
355.00	0.182
355.46	0.179
355.92	0.174
356.39	0.178
356.85	0.175
357.31	0.171
357.78	0.175
358.24	0.172
358.71	0.172
359.17	0.173
359.63	0.167
360.10	0.169
360.56	0.170
361.03	0.169
361.49	0.169
361.95	0.164
362.42	0.166
362.88	0.169
363.34	0.168
363.81	0.166
364.27	0.169
364.73	0.166
365.20	0.167
365.66	0.165
366.12	0.167
366.59	0.166
367.05	0.164
367.51	0.164
367.98	0.164
368.44	0.163
368.90	0.164
369.37	0.163
369.83	0.164
370.29	0.162
370.76	0.161
371.22	0.160
371.68	0.161
372.15	0.158
372.61	0.155
373.07	0.161
373.54	0.156
374.00	0.158
374.46	0.158
374.92	0.158
375.39	0.157
375.85	0.156
376.31	0.157
376.78	0.156
377.24	0.157
377.70	0.155
378.16	0.155
378.63	0.155
379.09	0.157
379.55	0.157
380.01	0.156
380.48	0.157
380.94	0.155
381.40	0.156
381.87	0.158
382.33	0.153
382.79	0.151
383.25	0.153
383.72	0.154
384.18	0.153
384.64	0.155
385.10	0.153
385.56	0.153
386.03	0.154
386.49	0.151
386.95	0.152
387.41	0.151
387.88	0.147
388.34	0.147
388.80	0.152
389.26	0.151
389.72	0.152
390.19	0.148
390.65	0.150
391.11	0.148
391.57	0.149
392.04	0.148
392.50	0.149
392.96	0.148
393.42	0.148
393.88	0.151
394.34	0.148
394.81	0.148
395.27	0.146
395.73	0.144
396.19	0.146
396.65	0.144
397.12	0.145
397.58	0.143
398.04	0.144
398.50	0.146
398.96	0.145
399.42	0.148
399.89	0.148
400.35	0.145
400.81	0.143
401.27	0.145
401.73	0.143
402.19	0.144
402.65	0.141
403.12	0.143
403.58	0.142
404.04	0.140
404.50	0.138
404.96	0.140
405.42	0.140
405.88	0.142
406.34	0.144
406.81	0.141
407.27	0.140
407.73	0.135
408.19	0.134
408.65	0.133
409.11	0.138
409.57	0.137
410.03	0.139
410.49	0.138
410.96	0.137
411.42	0.138
411.88	0.134
412.34	0.130
412.80	0.134
413.26	0.136
413.72	0.134
414.18	0.136
414.64	0.135
415.10	0.135
415.56	0.137
416.02	0.133
416.48	0.132
416.95	0.135
417.41	0.132
417.87	0.132
418.33	0.133
418.79	0.130
419.25	0.133
419.71	0.133
420.17	0.130
420.63	0.128
421.09	0.130
421.55	0.132
422.01	0.130
422.47	0.134
422.93	0.136
423.39	0.134
423.85	0.131
424.31	0.131
424.77	0.131
425.23	0.133
425.69	0.135
426.15	0.133
426.61	0.130
427.07	0.127
427.53	0.128
427.99	0.127
428.45	0.130
428.91	0.125
429.37	0.128
429.83	0.127
430.29	0.129
430.75	0.131
431.21	0.135
431.67	0.134
432.13	0.133
432.59	0.129
433.05	0.130
433.51	0.125
433.97	0.124
434.43	0.134
434.89	0.133
435.35	0.130
435.81	0.131
436.27	0.131
436.73	0.130
437.19	0.131
437.65	0.129
438.11	0.129
438.57	0.130
439.03	0.128
439.48	0.129
439.94	0.130
440.40	0.128
440.86	0.126
441.32	0.127
441.78	0.127
442.24	0.131
442.70	0.132
443.16	0.128
443.62	0.127
444.08	0.126
444.54	0.126
444.99	0.126
445.45	0.124
445.91	0.124
446.37	0.122
446.83	0.125
447.29	0.125
447.75	0.125
448.21	0.128
448.67	0.124
449.12	0.125
449.58	0.123
450.04	0.126
450.50	0.123
450.96	0.122
451.42	0.125
451.88	0.126
452.34	0.122
452.79	0.124
453.25	0.126
453.71	0.123
454.17	0.122
454.63	0.126
455.09	0.124
455.55	0.126
456.00	0.123
456.46	0.125
456.92	0.123
457.38	0.123
457.84	0.121
458.30	0.124
458.75	0.123
459.21	0.120
459.67	0.121
460.13	0.121
460.59	0.122
461.04	0.120
461.50	0.120
461.96	0.122
462.42	0.122
462.88	0.119
463.33	0.121
463.79	0.123
464.25	0.120
464.71	0.123
465.17	0.121
465.62	0.124
466.08	0.124
466.54	0.125
467.00	0.123
467.46	0.124
467.91	0.123
468.37	0.122
468.83	0.125
469.29	0.122
469.74	0.121
470.20	0.124
470.66	0.121
471.12	0.122
471.57	0.122
472.03	0.121
472.49	0.123
472.95	0.125
473.40	0.122
473.86	0.123
474.32	0.121
474.78	0.123
475.23	0.123
475.69	0.121
476.15	0.127
476.60	0.124
477.06	0.125
477.52	0.125
477.98	0.123
478.43	0.125
478.89	0.122
479.35	0.123
479.80	0.123
480.26	0.120
480.72	0.123
481.18	0.120
481.63	0.122
482.09	0.123
482.55	0.119
483.00	0.122
483.46	0.121
483.92	0.121
484.37	0.119
484.83	0.119
485.29	0.121
485.74	0.120
486.20	0.120
486.66	0.124
487.11	0.121
487.57	0.121
488.03	0.121
488.48	0.122
488.94	0.120
489.40	0.121
489.85	0.121
490.31	0.121
490.77	0.120
491.22	0.121
491.68	0.121
492.13	0.120
492.59	0.120
493.05	0.120
493.50	0.120
493.96	0.118
494.42	0.124
494.87	0.121
495.33	0.118
495.78	0.121
496.24	0.122
496.70	0.123
497.15	0.119
497.61	0.121
498.06	0.120
498.52	0.120
498.98	0.120
499.43	0.120
499.89	0.119
500.34	0.117
500.80	0.119
501.25	0.119
501.71	0.119
502.17	0.119
502.62	0.117
503.08	0.117
503.53	0.116
503.99	0.117
504.44	0.119
504.90	0.116
505.36	0.117
505.81	0.118
506.27	0.116
506.72	0.118
507.18	0.118
507.63	0.118
508.09	0.116
508.54	0.115
509.00	0.119
509.45	0.118
509.91	0.115
510.36	0.118
510.82	0.120
511.27	0.117
511.73	0.120
512.19	0.117
512.64	0.117
513.10	0.119
513.55	0.118
514.01	0.119
514.46	0.121
514.92	0.117
515.37	0.117
515.83	0.117
516.28	0.117
516.73	0.116
517.19	0.118
517.64	0.119
518.10	0.117
518.55	0.116
519.01	0.116
519.46	0.115
519.92	0.115
520.37	0.114
520.83	0.117
521.28	0.111
521.74	0.115
522.19	0.117
522.65	0.116
523.10	0.115
523.55	0.116
524.01	0.116
524.46	0.115
524.92	0.114
525.37	0.117
525.83	0.116
526.28	0.118
526.73	0.116
527.19	0.116
527.64	0.116
528.10	0.117
528.55	0.117
529.01	0.115
529.46	0.115
529.91	0.115
530.37	0.116
530.82	0.116
531.28	0.115
531.73	0.115
532.18	0.117
532.64	0.117
533.09	0.117
533.54	0.117
534.00	0.117
534.45	0.118
534.91	0.115
535.36	0.115
535.81	0.116
536.27	0.115
536.72	0.115
537.17	0.118
537.63	0.116
538.08	0.118
538.54	0.116
538.99	0.118
539.44	0.119
539.90	0.119
540.35	0.118
540.80	0.119
541.26	0.119
541.71	0.120
542.16	0.120
542.62	0.121
543.07	0.120
543.52	0.119
543.98	0.122
544.43	0.120
544.88	0.119
545.34	0.120
545.79	0.120
546.24	0.121
546.69	0.121
547.15	0.122
547.60	0.122
548.05	0.123
548.51	0.123
548.96	0.122
549.41	0.122
549.86	0.125
550.32	0.125
550.77	0.125
551.22	0.123
551.68	0.124
552.13	0.125
552.58	0.123
553.03	0.125
553.49	0.123
553.94	0.125
554.39	0.126
554.84	0.127
555.30	0.125
555.75	0.128
556.20	0.128
556.65	0.127
557.11	0.129
557.56	0.129
558.01	0.132
558.46	0.130
558.92	0.131
559.37	0.132
559.82	0.132
560.27	0.132
560.72	0.134
561.18	0.134
561.63	0.134
562.08	0.135
562.53	0.134
562.99	0.134
563.44	0.136
563.89	0.136
564.34	0.136
564.79	0.137
565.25	0.140
565.70	0.138
566.15	0.138
566.60	0.140
567.05	0.140
567.50	0.142
567.96	0.141
568.41	0.141
568.86	0.141
569.31	0.141
569.76	0.141
570.21	0.143
570.67	0.142
571.12	0.141
571.57	0.144
572.02	0.147
572.47	0.146
572.92	0.146
573.37	0.150
573.83	0.148
574.28	0.149
574.73	0.149
575.18	0.150
575.63	0.151
576.08	0.150
576.53	0.151
576.98	0.153
577.44	0.155
577.89	0.155
578.34	0.158
578.79	0.156
579.24	0.156
579.69	0.158
580.14	0.160
580.59	0.159
581.04	0.161
581.49	0.160
581.95	0.163
582.40	0.165
582.85	0.166
583.30	0.167
583.75	0.170
584.20	0.169
584.65	0.171
585.10	0.172
585.55	0.173
586.00	0.174
586.45	0.174
586.90	0.176
587.35	0.179
587.80	0.180
588.25	0.179
588.71	0.182
589.16	0.185
589.61	0.185
590.06	0.188
590.51	0.186
590.96	0.190
591.41	0.193
591.86	0.192
592.31	0.196
592.76	0.195
593.21	0.196
593.66	0.200
594.11	0.200
594.56	0.203
595.01	0.205
595.46	0.203
595.91	0.207
596.36	0.209
596.81	0.210
597.26	0.211
597.71	0.214
598.16	0.217
598.61	0.218
599.06	0.219
599.51	0.221
599.96	0.223
600.41	0.222
600.86	0.226
601.31	0.227
601.76	0.230
602.21	0.230
602.65	0.233
603.10	0.234
603.55	0.237
604.00	0.238
604.45	0.238
604.90	0.239
605.35	0.241
605.80	0.241
606.25	0.243
606.70	0.249
607.15	0.246
607.60	0.247
608.05	0.249
608.50	0.252
608.95	0.253
609.39	0.251
609.84	0.254
610.29	0.256
610.74	0.255
611.19	0.257
611.64	0.256
612.09	0.258
612.54	0.260
612.99	0.259
613.44	0.262
613.88	0.263
614.33	0.263
614.78	0.265
615.23	0.265
615.68	0.264
616.13	0.266
616.58	0.267
617.03	0.269
617.47	0.269
617.92	0.271
618.37	0.270
618.82	0.270
619.27	0.270
619.72	0.270
620.17	0.272
620.61	0.271
621.06	0.271
621.51	0.269
621.96	0.274
622.41	0.273
622.86	0.273
623.30	0.276
623.75	0.276
624.20	0.277
624.65	0.279
625.10	0.278
625.54	0.276
625.99	0.278
626.44	0.281
626.89	0.281
627.34	0.282
627.78	0.283
628.23	0.285
628.68	0.286
629.13	0.287
629.58	0.286
630.02	0.288
630.47	0.291
630.92	0.290
631.37	0.294
631.81	0.295
632.26	0.294
632.71	0.297
633.16	0.300
633.61	0.300
634.05	0.302
634.50	0.303
634.95	0.305
635.40	0.308
635.84	0.308
636.29	0.312
636.74	0.313
637.18	0.315
637.63	0.318
638.08	0.322
638.53	0.322
638.97	0.324
639.42	0.324
639.87	0.327
640.32	0.332
640.76	0.335
641.21	0.335
641.66	0.338
642.10	0.341
642.55	0.343
643.00	0.344
643.44	0.348
643.89	0.351
644.34	0.355
644.79	0.359
645.23	0.361
645.68	0.362
646.13	0.364
646.57	0.368
647.02	0.370
647.47	0.373
647.91	0.375
648.36	0.378
648.81	0.379
649.25	0.385
649.70	0.386
650.15	0.389
650.59	0.393
651.04	0.396
651.48	0.396
651.93	0.400
652.38	0.401
652.82	0.403
653.27	0.402
653.72	0.409
654.16	0.410
654.61	0.411
655.06	0.413
655.50	0.413
655.95	0.411
656.39	0.413
656.84	0.425
657.29	0.427
657.73	0.426
658.18	0.425
658.62	0.427
659.07	0.430
659.52	0.431
659.96	0.430
660.41	0.434
660.85	0.434
661.30	0.435
661.74	0.437
662.19	0.438
662.64	0.439
663.08	0.437
663.53	0.436
663.97	0.438
664.42	0.434
664.86	0.437
665.31	0.437
665.75	0.435
666.20	0.433
666.65	0.433
667.09	0.435
667.54	0.431
667.98	0.430
668.43	0.428
668.87	0.427
669.32	0.425
669.76	0.420
670.21	0.420
670.65	0.417
671.10	0.413
671.54	0.412
671.99	0.408
672.43	0.402
672.88	0.397
673.32	0.391
673.77	0.386
674.21	0.382
674.66	0.376
675.10	0.373
675.55	0.365
675.99	0.358
676.44	0.354
676.88	0.348
677.33	0.343
677.77	0.335
678.22	0.326
678.66	0.322
679.11	0.315
679.55	0.307
679.99	0.301
680.44	0.295
680.88	0.287
681.33	0.282
681.77	0.274
682.22	0.265
682.66	0.260
683.11	0.253
683.55	0.247
683.99	0.241
684.44	0.235
684.88	0.232
685.33	0.224
685.77	0.217
686.21	0.212
686.66	0.207
687.10	0.199
687.55	0.194
687.99	0.190
688.44	0.184
688.88	0.178
689.32	0.176
689.77	0.171
690.21	0.167
690.65	0.163
691.10	0.159
691.54	0.155
691.99	0.152
692.43	0.149
692.87	0.145
693.32	0.142
693.76	0.137
694.20	0.137
694.65	0.133
695.09	0.131
695.53	0.128
695.98	0.124
696.42	0.124
696.86	0.123
697.31	0.119
697.75	0.117
698.19	0.114
698.64	0.113
699.08	0.112
699.52	0.111
699.97	0.109
700.41	0.107
700.85	0.107
701.30	0.103
701.74	0.104
702.18	0.101
702.63	0.100
703.07	0.099
703.51	0.099
703.96	0.099
704.40	0.095
704.84	0.095
705.28	0.095
705.73	0.094
706.17	0.092
706.61	0.093
707.06	0.090
707.50	0.092
707.94	0.092
708.38	0.090
708.83	0.091
709.27	0.090
709.71	0.091
710.15	0.089
710.60	0.089
711.04	0.087
711.48	0.089
711.92	0.086
712.37	0.086
712.81	0.086
713.25	0.088
713.69	0.085
714.13	0.084
714.58	0.083
715.02	0.083
715.46	0.083
715.90	0.084
716.35	0.083
716.79	0.085
717.23	0.086
717.67	0.085
718.11	0.082
718.56	0.082
719.00	0.084
719.44	0.083
719.88	0.084
720.32	0.086
720.76	0.082
721.21	0.084
721.65	0.082
722.09	0.083
722.53	0.085
722.97	0.084
723.41	0.084
723.86	0.082
724.30	0.084
724.74	0.084
725.18	0.084
725.62	0.083
726.06	0.084
726.50	0.085
726.95	0.086
727.39	0.083
727.83	0.084
728.27	0.085
728.71	0.084
729.15	0.084
729.59	0.084
730.03	0.085
730.48	0.084
730.92	0.085
731.36	0.084
731.80	0.083
732.24	0.089
732.68	0.085
733.12	0.085
733.56	0.086
734.00	0.088
734.44	0.085
734.89	0.086
735.33	0.084
735.77	0.088
736.21	0.087
736.65	0.088
737.09	0.090
737.53	0.088
737.97	0.086
738.41	0.087
738.85	0.086
739.29	0.086
739.73	0.087
740.17	0.085
740.61	0.086
741.05	0.089
741.49	0.088
741.93	0.085
742.37	0.087
742.81	0.086
743.26	0.087
743.70	0.087
744.14	0.088
744.58	0.086
745.02	0.085
745.46	0.085
745.90	0.084
746.34	0.086
746.78	0.089
747.22	0.087
747.66	0.085
748.10	0.086
748.54	0.088
748.98	0.088
749.42	0.086
749.86	0.088
750.29	0.089
750.73	0.086
751.17	0.086
751.61	0.087
752.05	0.085
752.49	0.085
752.93	0.088
753.37	0.087
753.81	0.087
754.25	0.085
754.69	0.087
755.13	0.088
755.57	0.085
756.01	0.085
756.45	0.084
756.89	0.086
757.33	0.085
757.77	0.085
758.21	0.085
758.64	0.084
759.08	0.086
759.52	0.084
759.96	0.082
760.40	0.083
760.84	0.083
761.28	0.084
761.72	0.087
762.16	0.086
762.60	0.084
763.03	0.084
763.47	0.086
763.91	0.083
764.35	0.084
764.79	0.086
765.23	0.086
765.67	0.083
766.11	0.084
766.54	0.084
766.98	0.081
767.42	0.084
767.86	0.085
768.30	0.083
768.74	0.083
769.17	0.086
769.61	0.084
770.05	0.085
770.49	0.086
770.93	0.085
771.37	0.086
771.80	0.084
772.24	0.081
772.68	0.082
773.12	0.083
773.56	0.086
774.00	0.085
774.43	0.084
774.87	0.080
775.31	0.085
775.75	0.083
776.19	0.084
776.62	0.084
777.06	0.083
777.50	0.083
777.94	0.082
778.37	0.087
778.81	0.083
779.25	0.082
779.69	0.084
780.13	0.084
780.56	0.080
781.00	0.084
781.44	0.084
781.88	0.083
782.31	0.083
782.75	0.082
783.19	0.085
783.63	0.086
784.06	0.087
784.50	0.083
784.94	0.086
785.37	0.083
785.81	0.081
786.25	0.082
786.69	0.084
787.12	0.083
787.56	0.084
788.00	0.085
788.43	0.082
788.87	0.084
789.31	0.085
789.75	0.086
790.18	0.085
790.62	0.081
791.06	0.084
791.49	0.085
791.93	0.080
792.37	0.079
792.80	0.085
793.24	0.080
793.68	0.086
794.11	0.087
794.55	0.084
794.99	0.085
795.42	0.085
795.86	0.087
796.30	0.083
796.73	0.080
797.17	0.083
797.61	0.083
798.04	0.085
798.48	0.084
798.91	0.082
799.35	0.083
799.79	0.081
800.22	0.082
800.66	0.083
801.10	0.084
801.53	0.089
801.97	0.084
802.40	0.080
802.84	0.084
803.28	0.084
803.71	0.082
804.15	0.082
804.58	0.085
805.02	0.088
805.46	0.081
805.89	0.084
806.33	0.084
806.76	0.083
807.20	0.083
807.63	0.080
808.07	0.084
808.51	0.084
808.94	0.082
809.38	0.083
809.81	0.086
810.25	0.086
810.68	0.084
811.12	0.083
811.55	0.082
811.99	0.084
812.42	0.083
812.86	0.085
813.29	0.086
813.73	0.085
814.17	0.078
814.60	0.084
815.04	0.078
815.47	0.083
815.91	0.081
816.34	0.084
816.78	0.087
817.21	0.089
817.65	0.085
818.08	0.086
818.52	0.083
818.95	0.085
819.39	0.087
819.82	0.086
820.25	0.084
820.69	0.086
821.12	0.085
821.56	0.086
821.99	0.084
822.43	0.087
822.86	0.084
823.30	0.084
823.73	0.084
824.17	0.089
824.60	0.086
825.04	0.084
825.47	0.086
825.90	0.083
826.34	0.089
826.77	0.088
827.21	0.089
827.64	0.082
828.08	0.091
828.51	0.088
828.94	0.089
829.38	0.087
829.81	0.089
830.25	0.093
830.68	0.090
831.11	0.093
831.55	0.090
831.98	0.093
832.42	0.091
832.85	0.092
833.28	0.094
833.72	0.094
834.15	0.098
834.58	0.090
835.02	0.093
835.45	0.095
835.88	0.098
836.32	0.094
836.75	0.094
837.19	0.096
837.62	0.088
838.05	0.095
838.49	0.093
838.92	0.089
839.35	0.090
839.79	0.094
840.22	0.089
840.65	0.095
841.09	0.095
841.52	0.093
841.95	0.094
842.39	0.092
842.82	0.095
843.25	0.095
843.68	0.094
844.12	0.093
844.55	0.092
844.98	0.094
845.42	0.094
845.85	0.093
846.28	0.098
846.71	0.086
847.15	0.090
847.58	0.100
848.01	0.095
848.45	0.093
848.88	0.091
849.31	0.097
849.74	0.095
850.18	0.091
850.61	0.104
851.04	0.095
851.47	0.095
851.91	0.095
852.34	0.097
852.77	0.098
853.20	0.099
853.64	0.098
854.07	0.098
854.50	0.096
854.93	0.094
855.36	0.101
855.80	0.098
856.23	0.099
856.66	0.099
857.09	0.102
857.52	0.098
857.96	0.097
858.39	0.100
858.82	0.092
859.25	0.101
859.68	0.096
860.12	0.098
860.55	0.100
860.98	0.098
861.41	0.101
861.84	0.100
862.27	0.101
862.71	0.100
863.14	0.099
863.57	0.102
864.00	0.099
864.43	0.097
864.86	0.101
865.30	0.106
865.73	0.099
866.16	0.100
866.59	0.100
867.02	0.098
867.45	0.102
867.88	0.103
868.31	0.100
868.75	0.098
869.18	0.099
869.61	0.103
870.04	0.102
870.47	0.106
870.90	0.105
871.33	0.104
871.76	0.100
872.19	0.098
872.62	0.107
873.06	0.107
873.49	0.099
873.92	0.107
874.35	0.105
874.78	0.108
875.21	0.104
875.64	0.109
876.07	0.112
876.50	0.099
876.93	0.103
877.36	0.108
877.79	0.103
878.22	0.103
878.65	0.105
879.08	0.105
879.51	0.098
879.94	0.108
880.37	0.105
880.80	0.101
881.23	0.101
881.67	0.105
882.10	0.110
882.53	0.109
882.96	0.110
883.39	0.111
883.82	0.109
884.25	0.109
884.68	0.104
885.11	0.107
885.54	0.108
885.97	0.105
886.39	0.101
886.82	0.100
887.25	0.107
887.68	0.109
888.11	0.105
888.54	0.105
888.97	0.102
889.40	0.109
889.83	0.113
890.26	0.107
890.69	0.104
891.12	0.104
891.55	0.106
891.98	0.108
892.41	0.106
892.84	0.110
893.27	0.107
893.70	0.107
894.13	0.107
894.56	0.109
894.98	0.108
895.41	0.107
895.84	0.109
896.27	0.106
896.70	0.108
897.13	0.101
897.56	0.110
897.99	0.108
898.42	0.111
898.85	0.111
899.27	0.111
899.70	0.115
900.13	0.107
900.56	0.108
900.99	0.112
901.42	0.106
901.85	0.111
902.28	0.115
902.70	0.110
903.13	0.109
903.56	0.114
903.99	0.108
904.42	0.111
904.85	0.108
905.27	0.109
905.70	0.112
906.13	0.111
906.56	0.114
906.99	0.109
907.42	0.106
907.84	0.109
908.27	0.114
908.70	0.108
909.13	0.108
909.56	0.108
909.98	0.110
910.41	0.109
910.84	0.107
911.27	0.106
911.70	0.109
912.12	0.104
912.55	0.107
912.98	0.108
913.41	0.108
913.84	0.106
914.26	0.109
914.69	0.106
915.12	0.109
915.55	0.103
915.97	0.105
916.40	0.109
916.83	0.106
917.26	0.110
917.68	0.113
918.11	0.110
918.54	0.110
918.97	0.109
919.39	0.110
919.82	0.112
920.25	0.108
920.67	0.106
921.10	0.110
921.53	0.106
921.96	0.109
922.38	0.112
922.81	0.111
923.24	0.114
923.66	0.112
924.09	0.111
924.52	0.113
924.94	0.114
925.37	0.116
925.80	0.114
926.22	0.114
926.65	0.121
927.08	0.117
927.50	0.120
927.93	0.120
928.36	0.120
928.78	0.125
929.21	0.122
929.64	0.126
930.06	0.122
930.49	0.129
930.92	0.124
931.34	0.124
931.77	0.124
932.20	0.125
932.62	0.125
933.05	0.125
933.47	0.130
933.90	0.131
934.33	0.136
934.75	0.138
935.18	0.134
935.61	0.130
936.03	0.141
936.46	0.138
936.88	0.143
937.31	0.144
937.73	0.151
938.16	0.150
938.59	0.149
939.01	0.154
939.44	0.155
939.86	0.157
940.29	0.160
940.71	0.165
941.14	0.159
941.57	0.161
941.99	0.170
942.42	0.168
942.84	0.172
943.27	0.165
943.69	0.171
944.12	0.178
944.54	0.175
944.97	0.173
945.39	0.187
945.82	0.188
946.24	0.180
946.67	0.187
947.09	0.188
947.52	0.187
947.94	0.192
948.37	0.191
948.79	0.197
949.22	0.204
949.64	0.204
950.07	0.206
950.49	0.205
950.92	0.199
951.34	0.212
951.77	0.216
952.19	0.208
952.62	0.217
953.04	0.222
953.47	0.224
953.89	0.225
954.32	0.226
954.74	0.240
955.17	0.233
955.59	0.237
956.01	0.244
956.44	0.238
956.86	0.237
957.29	0.248
957.71	0.251
958.14	0.251
958.56	0.254
958.98	0.256
959.41	0.258
959.83	0.259
960.26	0.265
960.68	0.264
961.10	0.263
961.53	0.263
961.95	0.266
962.38	0.268
962.80	0.270
963.22	0.269
963.65	0.275
964.07	0.270
964.50	0.275
964.92	0.276
965.34	0.277
965.77	0.276
966.19	0.270
966.61	0.274
967.04	0.286
967.46	0.280
967.88	0.282
968.31	0.280
968.73	0.276
969.15	0.277
969.58	0.283
970.00	0.276
970.42	0.281
970.85	0.277
971.27	0.277
971.69	0.282
972.12	0.274
972.54	0.279
972.96	0.285
973.39	0.281
973.81	0.281
974.23	0.286
974.65	0.284
975.08	0.283
975.50	0.281
975.92	0.283
976.35	0.286
976.77	0.279
977.19	0.277
977.61	0.283
978.04	0.280
978.46	0.281
978.88	0.279
979.30	0.282
979.73	0.282
980.15	0.285
980.57	0.282
980.99	0.286
981.42	0.277
981.84	0.287
982.26	0.292
982.68	0.280
983.11	0.280
983.53	0.282
983.95	0.286
984.37	0.273
984.79	0.280
985.22	0.281
985.64	0.281
986.06	0.275
986.48	0.284
986.90	0.274
987.33	0.281
987.75	0.279
988.17	0.277
988.59	0.282
989.01	0.270
989.43	0.276
989.86	0.277
990.28	0.267
990.70	0.268
991.12	0.268
991.54	0.276
991.96	0.263
992.39	0.265
992.81	0.267
993.23	0.267
993.65	0.267
994.07	0.263
994.49	0.258
994.91	0.266
995.34	0.262
995.76	0.269
996.18	0.266
996.60	0.259
997.02	0.260
997.44	0.261
997.86	0.260
998.28	0.254
998.70	0.257
999.12	0.259
999.55	0.261
999.97	0.263
1000.39	0.259
1000.81	0.260
1001.23	0.248
1001.65	0.256
1002.07	0.251
1002.49	0.252
1002.91	0.254
1003.33	0.253
1003.75	0.253
1004.17	0.251
1004.59	0.255
1005.01	0.251
1005.43	0.245
1005.85	0.241
1006.28	0.250
1006.70	0.243
1007.12	0.245
1007.54	0.240
1007.96	0.244
1008.38	0.240
1008.80	0.239
1009.22	0.244
1009.64	0.238
1010.06	0.248
1010.48	0.240
1010.90	0.248
1011.32	0.248
1011.74	0.232
1012.16	0.235
1012.58	0.238
1013.00	0.232
1013.42	0.232
1013.84	0.234
1014.26	0.232
1014.67	0.232
1015.09	0.222
1015.51	0.232
1015.93	0.233
1016.35	0.212
1016.77	0.220
1017.19	0.233
1017.61	0.213
1018.03	0.219
1018.45	0.223
1018.87	0.226
1019.29	0.217
1019.71	0.210
1020.13	0.221
1020.55	0.234
1020.97	0.212
1021.38	0.219
1021.80	0.221
1022.22	0.222
1022.64	0.215
1023.06	0.234
1023.48	0.214
1023.90	0.206
1024.32	0.212
1024.74	0.203
1025.15	0.222
1025.57	0.210
1025.99	0.220
1026.41	0.217
1026.83	0.218
1027.25	0.209
1027.67	0.225
1028.08	0.203
1028.50	0.212
1028.92	0.212
1029.34	0.209
1029.76	0.217
1030.18	0.198
1030.60	0.215
1031.01	0.205
1031.43	0.200
1031.85	0.206
1032.27	0.210
1032.69	0.194
1033.10	0.206
1033.52	0.211
1033.94	0.187
1034.36	0.207
1034.78	0.195
1035.19	0.203
1035.61	0.197
1036.03	0.190
1036.45	0.211
1036.87	0.203
1037.28	0.191
1037.70	0.193
1038.12	0.211
1038.54	0.200
1038.95	0.189
1039.37	0.201
1039.79	0.198
1040.21	0.192
1040.62	0.180
1041.04	0.220
1041.46	0.218
1041.88	0.191
1042.29	0.187
1042.71	0.200
1043.13	0.178
1043.55	0.197
1043.96	0.211
1044.38	0.201
1044.80	0.197
1045.21	0.190
1045.63	0.221
1046.05	0.210
1046.47	0.183
1046.88	0.201
1047.30	0.196
1047.72	0.189
1048.13	0.168
1048.55	0.220
1048.97	0.208
1049.38	0.205
1049.80	0.179
1050.22	0.199
1050.63	0.209
1051.05	0.199
1051.47	0.238
1051.88	0.216
1052.30	0.192
1052.72	0.206
1053.13	0.221
1053.55	0.190
1053.97	0.191
1054.38	0.231
1054.80	0.224
1055.21	0.211
1055.63	0.205
1056.05	0.223
1056.46	0.259
1056.88	0.243
1057.29	0.212
1057.71	0.281
1058.13	0.227
1058.54	0.215
1058.96	0.230
1059.37	0.247
1059.79	0.282
1060.21	0.228
1060.62	0.247
1061.04	0.312
1061.45	0.288
1061.87	0.280
1062.28	0.296
1062.70	0.335
1063.12	0.321
1063.53	0.280
1063.95	0.290
1064.36	0.297
1064.78	0.301
1065.19	0.417
1065.61	0.398
1066.02	0.292
1066.44	0.335
1066.85	0.366
1067.27	0.362
1067.68	0.254
1068.10	0.409
1068.51	0.368
1068.93	0.360
1069.35	0.424
1069.76	0.520
1070.17	0.609
1070.59	0.393
1071.00	0.529
1071.42	0.561
1071.83	0.505
1072.25	0.494
1072.66	0.702
1073.08	0.775
1073.49	0.731
1073.91	0.841
1074.32	0.750
1074.74	0.941
1075.15	0.944
1075.57	0.932
1075.98	1.090
1076.40	0.982
1076.81	1.193
1077.22	1.312
1077.64	-0.000
1078.05	-0.000
1078.47	-0.000
1078.88	-0.000
1079.30	-0.000
1079.71	-0.000
1080.12	-0.000
1080.54	-0.000
1080.95	-0.000
1081.37	-0.000
1081.78	-0.000
1082.19	-0.000
1082.61	-0.000
1083.02	-0.000
1083.44	-0.000
1083.85	-0.000
1084.26	-0.000
1084.68	-0.000
1085.09	-0.000
1085.50	-0.000
1085.92	-0.000
1086.33	-0.000
1086.74	-0.000
1087.16	-0.000
1087.57	-0.000
1087.98	-0.000
1088.40	-0.000
1088.81	-0.000
1089.22	-0.000
1089.64	-0.000
1090.05	-0.000
1090.46	-0.000
1090.88	-0.000
1091.29	-0.000
1091.70	-0.000
1092.12	-0.000
1092.53	-0.000
1092.94	-0.000
1093.36	-0.000
1093.77	-0.000
1094.18	-0.000
1094.59	-0.000
1095.01	-0.000
1095.42	-0.000
1095.83	-0.000
1096.25	-0.000
1096.66	-0.000
1097.07	-0.000
1097.48	-0.000
1097.90	-0.000
1098.31	-0.000
1098.72	-0.000
1099.13	-0.000
>>>>>End Processed Spectral Data<<<<<
