SpectraSuite Data File
++++++++++++++++++++++++++++++++++++
Date: Wed May 04 16:00:59 CEST 2016
User: spectrasuite
Dark Spectrum Present: Yes
Reference Spectrum Present: Yes
Number of Sampled Component Spectra: 1
Spectrometers: HR+C0708
Integration Time (usec): 1000 (HR+C0708)
Spectra Averaged: 10 (HR+C0708)
Boxcar Smoothing: 0 (HR+C0708)
Correct for Electrical Dark: No (HR+C0708)
Strobe/Lamp Enabled: No (HR+C0708)
Correct for Detector Non-linearity: No (HR+C0708)
Correct for Stray Light: No (HR+C0708)
Number of Pixels in Processed Spectrum: 2048
>>>>>Begin Processed Spectral Data<<<<<
188.76	-0.000
189.23	-0.000
189.70	-0.000
190.17	-0.000
190.64	-0.000
191.12	-0.000
191.59	-0.000
192.06	-0.000
192.53	-0.000
193.01	-0.000
193.48	-0.000
193.95	-0.000
194.42	-0.000
194.90	-0.000
195.37	-0.000
195.84	-0.000
196.31	-0.000
196.78	-0.000
197.26	-0.000
197.73	-0.000
198.20	-0.000
198.67	-0.000
199.14	-0.000
199.62	-0.000
200.09	-0.000
200.56	-0.000
201.03	-0.000
201.50	0.846
201.97	-0.000
202.45	-0.000
202.92	-0.000
203.39	-0.000
203.86	-0.000
204.33	-0.000
204.80	-0.000
205.28	-0.000
205.75	-0.000
206.22	-0.000
206.69	-0.000
207.16	-0.000
207.63	-0.000
208.11	-0.000
208.58	-0.000
209.05	-0.000
209.52	-0.000
209.99	-0.000
210.46	0.941
210.93	-0.000
211.41	-0.000
211.88	1.924
212.35	-0.000
212.82	-0.000
213.29	-0.000
213.76	-0.000
214.23	-0.000
214.70	-0.000
215.18	-0.000
215.65	1.429
216.12	2.130
216.59	1.531
217.06	1.218
217.53	-0.000
218.00	2.726
218.47	-0.000
218.94	-0.000
219.41	-0.000
219.89	-0.000
220.36	1.547
220.83	-0.000
221.30	-0.000
221.77	-0.000
222.24	2.393
222.71	-0.000
223.18	-0.000
223.65	1.242
224.12	-0.000
224.59	1.762
225.06	-0.000
225.54	-0.000
226.01	-0.000
226.48	-0.000
226.95	-0.000
227.42	1.560
227.89	-0.000
228.36	-0.000
228.83	1.762
229.30	-0.000
229.77	-0.000
230.24	-0.000
230.71	-0.000
231.18	-0.000
231.65	-0.000
232.12	-0.000
232.59	-0.000
233.06	-0.000
233.53	-0.000
234.00	2.160
234.47	-0.000
234.94	-0.000
235.41	2.933
235.88	-0.000
236.35	-0.000
236.82	2.811
237.29	2.590
237.76	-0.000
238.23	-0.000
238.70	-0.000
239.17	3.038
239.64	-0.000
240.11	-0.000
240.58	2.650
241.05	-0.000
241.52	-0.000
241.99	-0.000
242.46	-0.000
242.93	3.198
243.40	-0.000
243.87	-0.000
244.34	2.603
244.81	-0.000
245.28	-0.000
245.75	3.147
246.22	3.421
246.69	-0.000
247.16	3.070
247.63	3.897
248.10	3.503
248.57	-0.000
249.04	-0.000
249.51	3.097
249.98	-0.000
250.45	3.326
250.92	2.779
251.39	2.785
251.85	2.565
252.32	2.262
252.79	2.132
253.26	1.941
253.73	1.855
254.20	1.706
254.67	1.590
255.14	1.537
255.61	1.467
256.08	1.388
256.55	1.324
257.02	1.280
257.49	1.215
257.95	1.178
258.42	1.134
258.89	1.099
259.36	1.070
259.83	1.047
260.30	1.026
260.77	0.993
261.24	0.970
261.71	0.948
262.17	0.925
262.64	0.904
263.11	0.890
263.58	0.873
264.05	0.861
264.52	0.844
264.99	0.830
265.46	0.817
265.92	0.805
266.39	0.790
266.86	0.781
267.33	0.771
267.80	0.757
268.27	0.748
268.74	0.740
269.20	0.728
269.67	0.722
270.14	0.710
270.61	0.704
271.08	0.690
271.55	0.685
272.01	0.682
272.48	0.672
272.95	0.665
273.42	0.659
273.89	0.654
274.36	0.645
274.82	0.643
275.29	0.641
275.76	0.634
276.23	0.628
276.70	0.625
277.16	0.621
277.63	0.615
278.10	0.610
278.57	0.606
279.04	0.608
279.50	0.602
279.97	0.597
280.44	0.597
280.91	0.594
281.38	0.591
281.84	0.587
282.31	0.589
282.78	0.589
283.25	0.583
283.72	0.582
284.18	0.583
284.65	0.583
285.12	0.579
285.59	0.578
286.05	0.579
286.52	0.581
286.99	0.581
287.46	0.579
287.92	0.576
288.39	0.573
288.86	0.574
289.33	0.576
289.79	0.575
290.26	0.572
290.73	0.569
291.20	0.569
291.66	0.567
292.13	0.565
292.60	0.560
293.07	0.558
293.53	0.551
294.00	0.547
294.47	0.545
294.93	0.540
295.40	0.532
295.87	0.525
296.34	0.517
296.80	0.512
297.27	0.501
297.74	0.499
298.20	0.489
298.67	0.481
299.14	0.474
299.60	0.467
300.07	0.458
300.54	0.451
301.01	0.446
301.47	0.436
301.94	0.432
302.41	0.421
302.87	0.415
303.34	0.407
303.81	0.404
304.27	0.398
304.74	0.386
305.21	0.383
305.67	0.375
306.14	0.368
306.61	0.363
307.07	0.356
307.54	0.354
308.01	0.347
308.47	0.340
308.94	0.337
309.40	0.335
309.87	0.332
310.34	0.326
310.80	0.322
311.27	0.321
311.74	0.318
312.20	0.315
312.67	0.313
313.13	0.309
313.60	0.307
314.07	0.303
314.53	0.299
315.00	0.297
315.47	0.297
315.93	0.295
316.40	0.291
316.86	0.290
317.33	0.286
317.80	0.288
318.26	0.287
318.73	0.286
319.19	0.284
319.66	0.281
320.13	0.279
320.59	0.279
321.06	0.279
321.52	0.275
321.99	0.274
322.45	0.272
322.92	0.271
323.39	0.271
323.85	0.269
324.32	0.269
324.78	0.267
325.25	0.262
325.71	0.263
326.18	0.263
326.64	0.260
327.11	0.258
327.58	0.258
328.04	0.259
328.51	0.257
328.97	0.254
329.44	0.253
329.90	0.248
330.37	0.246
330.83	0.247
331.30	0.247
331.76	0.244
332.23	0.244
332.69	0.241
333.16	0.239
333.62	0.237
334.09	0.235
334.56	0.233
335.02	0.230
335.49	0.228
335.95	0.225
336.42	0.227
336.88	0.221
337.35	0.220
337.81	0.219
338.28	0.222
338.74	0.217
339.20	0.220
339.67	0.221
340.13	0.218
340.60	0.215
341.06	0.211
341.53	0.210
341.99	0.209
342.46	0.208
342.92	0.205
343.39	0.203
343.85	0.201
344.32	0.200
344.78	0.201
345.25	0.205
345.71	0.203
346.17	0.208
346.64	0.205
347.10	0.200
347.57	0.199
348.03	0.194
348.50	0.194
348.96	0.196
349.43	0.195
349.89	0.198
350.35	0.196
350.82	0.194
351.28	0.198
351.75	0.193
352.21	0.197
352.67	0.189
353.14	0.193
353.60	0.186
354.07	0.190
354.53	0.187
355.00	0.189
355.46	0.187
355.92	0.184
356.39	0.186
356.85	0.181
357.31	0.179
357.78	0.178
358.24	0.178
358.71	0.179
359.17	0.179
359.63	0.175
360.10	0.175
360.56	0.175
361.03	0.173
361.49	0.175
361.95	0.172
362.42	0.173
362.88	0.175
363.34	0.175
363.81	0.170
364.27	0.173
364.73	0.172
365.20	0.171
365.66	0.169
366.12	0.171
366.59	0.171
367.05	0.172
367.51	0.171
367.98	0.168
368.44	0.169
368.90	0.166
369.37	0.170
369.83	0.168
370.29	0.167
370.76	0.168
371.22	0.165
371.68	0.166
372.15	0.167
372.61	0.164
373.07	0.164
373.54	0.163
374.00	0.162
374.46	0.164
374.92	0.165
375.39	0.162
375.85	0.162
376.31	0.164
376.78	0.163
377.24	0.161
377.70	0.162
378.16	0.160
378.63	0.163
379.09	0.160
379.55	0.161
380.01	0.163
380.48	0.162
380.94	0.162
381.40	0.162
381.87	0.162
382.33	0.159
382.79	0.157
383.25	0.162
383.72	0.163
384.18	0.159
384.64	0.160
385.10	0.159
385.56	0.157
386.03	0.159
386.49	0.156
386.95	0.156
387.41	0.157
387.88	0.155
388.34	0.154
388.80	0.158
389.26	0.158
389.72	0.156
390.19	0.154
390.65	0.153
391.11	0.158
391.57	0.155
392.04	0.154
392.50	0.154
392.96	0.153
393.42	0.153
393.88	0.155
394.34	0.151
394.81	0.153
395.27	0.153
395.73	0.151
396.19	0.151
396.65	0.154
397.12	0.150
397.58	0.151
398.04	0.151
398.50	0.151
398.96	0.150
399.42	0.151
399.89	0.153
400.35	0.153
400.81	0.151
401.27	0.151
401.73	0.151
402.19	0.149
402.65	0.146
403.12	0.147
403.58	0.148
404.04	0.144
404.50	0.144
404.96	0.145
405.42	0.146
405.88	0.145
406.34	0.148
406.81	0.145
407.27	0.146
407.73	0.142
408.19	0.144
408.65	0.138
409.11	0.143
409.57	0.141
410.03	0.146
410.49	0.143
410.96	0.144
411.42	0.142
411.88	0.140
412.34	0.136
412.80	0.141
413.26	0.141
413.72	0.141
414.18	0.137
414.64	0.138
415.10	0.139
415.56	0.143
416.02	0.140
416.48	0.140
416.95	0.141
417.41	0.139
417.87	0.139
418.33	0.138
418.79	0.138
419.25	0.141
419.71	0.139
420.17	0.134
420.63	0.134
421.09	0.133
421.55	0.133
422.01	0.135
422.47	0.140
422.93	0.141
423.39	0.138
423.85	0.135
424.31	0.135
424.77	0.137
425.23	0.134
425.69	0.139
426.15	0.140
426.61	0.138
427.07	0.134
427.53	0.133
427.99	0.136
428.45	0.135
428.91	0.132
429.37	0.132
429.83	0.131
430.29	0.134
430.75	0.136
431.21	0.137
431.67	0.140
432.13	0.136
432.59	0.132
433.05	0.134
433.51	0.131
433.97	0.131
434.43	0.139
434.89	0.140
435.35	0.135
435.81	0.135
436.27	0.135
436.73	0.133
437.19	0.136
437.65	0.135
438.11	0.135
438.57	0.133
439.03	0.133
439.48	0.136
439.94	0.137
440.40	0.134
440.86	0.134
441.32	0.136
441.78	0.129
442.24	0.135
442.70	0.134
443.16	0.133
443.62	0.133
444.08	0.134
444.54	0.132
444.99	0.133
445.45	0.131
445.91	0.130
446.37	0.132
446.83	0.130
447.29	0.134
447.75	0.128
448.21	0.131
448.67	0.131
449.12	0.130
449.58	0.132
450.04	0.130
450.50	0.132
450.96	0.129
451.42	0.131
451.88	0.129
452.34	0.129
452.79	0.129
453.25	0.130
453.71	0.134
454.17	0.128
454.63	0.133
455.09	0.130
455.55	0.130
456.00	0.126
456.46	0.129
456.92	0.127
457.38	0.128
457.84	0.128
458.30	0.126
458.75	0.127
459.21	0.126
459.67	0.126
460.13	0.128
460.59	0.128
461.04	0.126
461.50	0.126
461.96	0.127
462.42	0.127
462.88	0.128
463.33	0.127
463.79	0.128
464.25	0.128
464.71	0.127
465.17	0.127
465.62	0.126
466.08	0.128
466.54	0.129
467.00	0.127
467.46	0.130
467.91	0.129
468.37	0.127
468.83	0.129
469.29	0.129
469.74	0.128
470.20	0.129
470.66	0.128
471.12	0.128
471.57	0.129
472.03	0.127
472.49	0.131
472.95	0.129
473.40	0.128
473.86	0.129
474.32	0.127
474.78	0.127
475.23	0.130
475.69	0.126
476.15	0.129
476.60	0.130
477.06	0.130
477.52	0.130
477.98	0.129
478.43	0.130
478.89	0.129
479.35	0.131
479.80	0.130
480.26	0.125
480.72	0.126
481.18	0.127
481.63	0.129
482.09	0.128
482.55	0.125
483.00	0.125
483.46	0.127
483.92	0.126
484.37	0.126
484.83	0.123
485.29	0.127
485.74	0.125
486.20	0.125
486.66	0.125
487.11	0.126
487.57	0.124
488.03	0.125
488.48	0.128
488.94	0.127
489.40	0.125
489.85	0.127
490.31	0.125
490.77	0.125
491.22	0.128
491.68	0.127
492.13	0.126
492.59	0.128
493.05	0.127
493.50	0.126
493.96	0.125
494.42	0.129
494.87	0.128
495.33	0.126
495.78	0.124
496.24	0.126
496.70	0.127
497.15	0.124
497.61	0.126
498.06	0.125
498.52	0.125
498.98	0.126
499.43	0.125
499.89	0.124
500.34	0.126
500.80	0.127
501.25	0.122
501.71	0.124
502.17	0.124
502.62	0.122
503.08	0.122
503.53	0.123
503.99	0.123
504.44	0.125
504.90	0.122
505.36	0.123
505.81	0.125
506.27	0.123
506.72	0.121
507.18	0.122
507.63	0.121
508.09	0.124
508.54	0.121
509.00	0.125
509.45	0.123
509.91	0.122
510.36	0.124
510.82	0.125
511.27	0.124
511.73	0.124
512.19	0.126
512.64	0.123
513.10	0.125
513.55	0.122
514.01	0.124
514.46	0.125
514.92	0.124
515.37	0.125
515.83	0.122
516.28	0.121
516.73	0.122
517.19	0.124
517.64	0.121
518.10	0.122
518.55	0.122
519.01	0.122
519.46	0.121
519.92	0.121
520.37	0.122
520.83	0.121
521.28	0.119
521.74	0.121
522.19	0.122
522.65	0.120
523.10	0.120
523.55	0.121
524.01	0.121
524.46	0.121
524.92	0.120
525.37	0.125
525.83	0.120
526.28	0.122
526.73	0.120
527.19	0.119
527.64	0.120
528.10	0.122
528.55	0.121
529.01	0.122
529.46	0.123
529.91	0.117
530.37	0.122
530.82	0.121
531.28	0.122
531.73	0.121
532.18	0.124
532.64	0.120
533.09	0.123
533.54	0.122
534.00	0.122
534.45	0.123
534.91	0.123
535.36	0.120
535.81	0.121
536.27	0.122
536.72	0.123
537.17	0.122
537.63	0.122
538.08	0.123
538.54	0.124
538.99	0.124
539.44	0.124
539.90	0.124
540.35	0.123
540.80	0.122
541.26	0.124
541.71	0.126
542.16	0.125
542.62	0.127
543.07	0.126
543.52	0.124
543.98	0.124
544.43	0.124
544.88	0.125
545.34	0.127
545.79	0.125
546.24	0.124
546.69	0.125
547.15	0.129
547.60	0.127
548.05	0.127
548.51	0.128
548.96	0.129
549.41	0.127
549.86	0.128
550.32	0.130
550.77	0.130
551.22	0.129
551.68	0.131
552.13	0.132
552.58	0.129
553.03	0.131
553.49	0.132
553.94	0.132
554.39	0.132
554.84	0.134
555.30	0.133
555.75	0.133
556.20	0.135
556.65	0.136
557.11	0.135
557.56	0.137
558.01	0.137
558.46	0.136
558.92	0.138
559.37	0.140
559.82	0.138
560.27	0.138
560.72	0.139
561.18	0.139
561.63	0.141
562.08	0.140
562.53	0.140
562.99	0.140
563.44	0.143
563.89	0.142
564.34	0.144
564.79	0.144
565.25	0.145
565.70	0.145
566.15	0.145
566.60	0.147
567.05	0.146
567.50	0.148
567.96	0.148
568.41	0.148
568.86	0.149
569.31	0.150
569.76	0.149
570.21	0.150
570.67	0.151
571.12	0.150
571.57	0.153
572.02	0.154
572.47	0.154
572.92	0.154
573.37	0.159
573.83	0.156
574.28	0.158
574.73	0.157
575.18	0.158
575.63	0.158
576.08	0.160
576.53	0.160
576.98	0.160
577.44	0.163
577.89	0.162
578.34	0.168
578.79	0.165
579.24	0.165
579.69	0.167
580.14	0.167
580.59	0.168
581.04	0.170
581.49	0.169
581.95	0.170
582.40	0.173
582.85	0.177
583.30	0.176
583.75	0.179
584.20	0.177
584.65	0.180
585.10	0.182
585.55	0.182
586.00	0.182
586.45	0.185
586.90	0.186
587.35	0.187
587.80	0.189
588.25	0.192
588.71	0.191
589.16	0.194
589.61	0.192
590.06	0.196
590.51	0.196
590.96	0.200
591.41	0.202
591.86	0.202
592.31	0.205
592.76	0.207
593.21	0.206
593.66	0.210
594.11	0.213
594.56	0.213
595.01	0.216
595.46	0.215
595.91	0.218
596.36	0.221
596.81	0.224
597.26	0.223
597.71	0.224
598.16	0.225
598.61	0.230
599.06	0.229
599.51	0.231
599.96	0.233
600.41	0.236
600.86	0.237
601.31	0.239
601.76	0.244
602.21	0.245
602.65	0.245
603.10	0.247
603.55	0.247
604.00	0.253
604.45	0.252
604.90	0.253
605.35	0.255
605.80	0.255
606.25	0.257
606.70	0.259
607.15	0.259
607.60	0.261
608.05	0.262
608.50	0.265
608.95	0.266
609.39	0.266
609.84	0.267
610.29	0.269
610.74	0.271
611.19	0.272
611.64	0.271
612.09	0.273
612.54	0.275
612.99	0.274
613.44	0.275
613.88	0.276
614.33	0.279
614.78	0.279
615.23	0.278
615.68	0.279
616.13	0.279
616.58	0.281
617.03	0.281
617.47	0.284
617.92	0.284
618.37	0.285
618.82	0.284
619.27	0.285
619.72	0.285
620.17	0.285
620.61	0.287
621.06	0.286
621.51	0.287
621.96	0.286
622.41	0.287
622.86	0.287
623.30	0.291
623.75	0.290
624.20	0.291
624.65	0.292
625.10	0.293
625.54	0.292
625.99	0.291
626.44	0.294
626.89	0.295
627.34	0.298
627.78	0.298
628.23	0.300
628.68	0.299
629.13	0.301
629.58	0.303
630.02	0.302
630.47	0.305
630.92	0.304
631.37	0.310
631.81	0.311
632.26	0.312
632.71	0.311
633.16	0.314
633.61	0.316
634.05	0.319
634.50	0.321
634.95	0.320
635.40	0.323
635.84	0.325
636.29	0.329
636.74	0.331
637.18	0.334
637.63	0.335
638.08	0.336
638.53	0.337
638.97	0.342
639.42	0.345
639.87	0.346
640.32	0.348
640.76	0.349
641.21	0.355
641.66	0.354
642.10	0.358
642.55	0.362
643.00	0.363
643.44	0.366
643.89	0.371
644.34	0.373
644.79	0.375
645.23	0.379
645.68	0.383
646.13	0.386
646.57	0.388
647.02	0.392
647.47	0.393
647.91	0.395
648.36	0.398
648.81	0.400
649.25	0.405
649.70	0.402
650.15	0.408
650.59	0.414
651.04	0.417
651.48	0.418
651.93	0.422
652.38	0.424
652.82	0.426
653.27	0.422
653.72	0.431
654.16	0.431
654.61	0.433
655.06	0.435
655.50	0.437
655.95	0.434
656.39	0.437
656.84	0.448
657.29	0.451
657.73	0.448
658.18	0.447
658.62	0.450
659.07	0.456
659.52	0.454
659.96	0.456
660.41	0.460
660.85	0.455
661.30	0.459
661.74	0.462
662.19	0.462
662.64	0.460
663.08	0.460
663.53	0.462
663.97	0.461
664.42	0.462
664.86	0.462
665.31	0.464
665.75	0.463
666.20	0.461
666.65	0.461
667.09	0.460
667.54	0.456
667.98	0.455
668.43	0.456
668.87	0.450
669.32	0.451
669.76	0.445
670.21	0.444
670.65	0.439
671.10	0.436
671.54	0.435
671.99	0.430
672.43	0.424
672.88	0.420
673.32	0.415
673.77	0.410
674.21	0.407
674.66	0.397
675.10	0.393
675.55	0.386
675.99	0.381
676.44	0.373
676.88	0.369
677.33	0.361
677.77	0.351
678.22	0.347
678.66	0.342
679.11	0.331
679.55	0.326
679.99	0.319
680.44	0.311
680.88	0.304
681.33	0.297
681.77	0.290
682.22	0.280
682.66	0.277
683.11	0.265
683.55	0.260
683.99	0.256
684.44	0.250
684.88	0.244
685.33	0.234
685.77	0.228
686.21	0.223
686.66	0.217
687.10	0.210
687.55	0.207
687.99	0.201
688.44	0.197
688.88	0.190
689.32	0.183
689.77	0.179
690.21	0.178
690.65	0.172
691.10	0.168
691.54	0.165
691.99	0.160
692.43	0.157
692.87	0.153
693.32	0.149
693.76	0.147
694.20	0.144
694.65	0.140
695.09	0.136
695.53	0.133
695.98	0.132
696.42	0.131
696.86	0.128
697.31	0.126
697.75	0.125
698.19	0.123
698.64	0.117
699.08	0.117
699.52	0.114
699.97	0.113
700.41	0.112
700.85	0.112
701.30	0.108
701.74	0.109
702.18	0.107
702.63	0.104
703.07	0.105
703.51	0.103
703.96	0.103
704.40	0.102
704.84	0.099
705.28	0.099
705.73	0.099
706.17	0.098
706.61	0.098
707.06	0.096
707.50	0.096
707.94	0.097
708.38	0.093
708.83	0.095
709.27	0.094
709.71	0.093
710.15	0.091
710.60	0.095
711.04	0.089
711.48	0.090
711.92	0.091
712.37	0.088
712.81	0.088
713.25	0.090
713.69	0.087
714.13	0.088
714.58	0.089
715.02	0.085
715.46	0.086
715.90	0.087
716.35	0.086
716.79	0.088
717.23	0.090
717.67	0.089
718.11	0.086
718.56	0.089
719.00	0.087
719.44	0.087
719.88	0.088
720.32	0.087
720.76	0.085
721.21	0.088
721.65	0.087
722.09	0.087
722.53	0.086
722.97	0.086
723.41	0.087
723.86	0.086
724.30	0.086
724.74	0.087
725.18	0.085
725.62	0.085
726.06	0.087
726.50	0.087
726.95	0.086
727.39	0.088
727.83	0.088
728.27	0.089
728.71	0.088
729.15	0.086
729.59	0.085
730.03	0.089
730.48	0.088
730.92	0.089
731.36	0.086
731.80	0.087
732.24	0.090
732.68	0.088
733.12	0.089
733.56	0.090
734.00	0.090
734.44	0.088
734.89	0.091
735.33	0.088
735.77	0.089
736.21	0.088
736.65	0.090
737.09	0.092
737.53	0.089
737.97	0.091
738.41	0.088
738.85	0.091
739.29	0.089
739.73	0.091
740.17	0.088
740.61	0.090
741.05	0.092
741.49	0.088
741.93	0.088
742.37	0.090
742.81	0.091
743.26	0.091
743.70	0.087
744.14	0.090
744.58	0.090
745.02	0.089
745.46	0.090
745.90	0.088
746.34	0.089
746.78	0.091
747.22	0.088
747.66	0.088
748.10	0.089
748.54	0.091
748.98	0.091
749.42	0.088
749.86	0.091
750.29	0.089
750.73	0.089
751.17	0.090
751.61	0.089
752.05	0.087
752.49	0.088
752.93	0.088
753.37	0.089
753.81	0.088
754.25	0.090
754.69	0.090
755.13	0.090
755.57	0.087
756.01	0.089
756.45	0.087
756.89	0.089
757.33	0.088
757.77	0.088
758.21	0.091
758.64	0.087
759.08	0.088
759.52	0.086
759.96	0.088
760.40	0.086
760.84	0.086
761.28	0.086
761.72	0.088
762.16	0.087
762.60	0.086
763.03	0.088
763.47	0.087
763.91	0.084
764.35	0.086
764.79	0.087
765.23	0.086
765.67	0.084
766.11	0.089
766.54	0.086
766.98	0.085
767.42	0.087
767.86	0.088
768.30	0.084
768.74	0.084
769.17	0.086
769.61	0.088
770.05	0.085
770.49	0.089
770.93	0.086
771.37	0.089
771.80	0.086
772.24	0.084
772.68	0.088
773.12	0.084
773.56	0.087
774.00	0.088
774.43	0.088
774.87	0.083
775.31	0.087
775.75	0.084
776.19	0.086
776.62	0.088
777.06	0.086
777.50	0.088
777.94	0.083
778.37	0.089
778.81	0.088
779.25	0.085
779.69	0.084
780.13	0.085
780.56	0.086
781.00	0.085
781.44	0.085
781.88	0.089
782.31	0.085
782.75	0.085
783.19	0.087
783.63	0.086
784.06	0.087
784.50	0.089
784.94	0.087
785.37	0.086
785.81	0.084
786.25	0.083
786.69	0.087
787.12	0.086
787.56	0.087
788.00	0.088
788.43	0.089
788.87	0.086
789.31	0.087
789.75	0.089
790.18	0.087
790.62	0.086
791.06	0.086
791.49	0.090
791.93	0.088
792.37	0.083
792.80	0.089
793.24	0.087
793.68	0.089
794.11	0.090
794.55	0.087
794.99	0.085
795.42	0.087
795.86	0.088
796.30	0.086
796.73	0.082
797.17	0.084
797.61	0.088
798.04	0.088
798.48	0.088
798.91	0.087
799.35	0.086
799.79	0.086
800.22	0.088
800.66	0.085
801.10	0.091
801.53	0.092
801.97	0.088
802.40	0.086
802.84	0.086
803.28	0.086
803.71	0.085
804.15	0.087
804.58	0.087
805.02	0.090
805.46	0.083
805.89	0.086
806.33	0.089
806.76	0.085
807.20	0.088
807.63	0.088
808.07	0.087
808.51	0.088
808.94	0.087
809.38	0.085
809.81	0.089
810.25	0.088
810.68	0.089
811.12	0.086
811.55	0.089
811.99	0.085
812.42	0.086
812.86	0.086
813.29	0.089
813.73	0.091
814.17	0.082
814.60	0.082
815.04	0.085
815.47	0.085
815.91	0.083
816.34	0.087
816.78	0.087
817.21	0.089
817.65	0.086
818.08	0.085
818.52	0.085
818.95	0.088
819.39	0.090
819.82	0.085
820.25	0.088
820.69	0.088
821.12	0.091
821.56	0.090
821.99	0.088
822.43	0.086
822.86	0.089
823.30	0.088
823.73	0.084
824.17	0.090
824.60	0.089
825.04	0.088
825.47	0.088
825.90	0.085
826.34	0.089
826.77	0.089
827.21	0.087
827.64	0.089
828.08	0.091
828.51	0.090
828.94	0.089
829.38	0.091
829.81	0.089
830.25	0.097
830.68	0.091
831.11	0.094
831.55	0.092
831.98	0.095
832.42	0.095
832.85	0.096
833.28	0.094
833.72	0.098
834.15	0.099
834.58	0.089
835.02	0.093
835.45	0.095
835.88	0.094
836.32	0.098
836.75	0.095
837.19	0.093
837.62	0.091
838.05	0.095
838.49	0.094
838.92	0.098
839.35	0.096
839.79	0.094
840.22	0.090
840.65	0.092
841.09	0.092
841.52	0.098
841.95	0.099
842.39	0.093
842.82	0.099
843.25	0.096
843.68	0.098
844.12	0.097
844.55	0.093
844.98	0.097
845.42	0.096
845.85	0.097
846.28	0.095
846.71	0.093
847.15	0.095
847.58	0.099
848.01	0.096
848.45	0.093
848.88	0.097
849.31	0.092
849.74	0.095
850.18	0.096
850.61	0.101
851.04	0.097
851.47	0.092
851.91	0.095
852.34	0.098
852.77	0.097
853.20	0.097
853.64	0.098
854.07	0.096
854.50	0.096
854.93	0.090
855.36	0.100
855.80	0.099
856.23	0.098
856.66	0.098
857.09	0.102
857.52	0.100
857.96	0.096
858.39	0.098
858.82	0.094
859.25	0.101
859.68	0.101
860.12	0.102
860.55	0.099
860.98	0.099
861.41	0.101
861.84	0.101
862.27	0.103
862.71	0.106
863.14	0.101
863.57	0.102
864.00	0.100
864.43	0.100
864.86	0.104
865.30	0.101
865.73	0.100
866.16	0.100
866.59	0.104
867.02	0.096
867.45	0.099
867.88	0.104
868.31	0.105
868.75	0.102
869.18	0.107
869.61	0.104
870.04	0.101
870.47	0.096
870.90	0.108
871.33	0.107
871.76	0.102
872.19	0.102
872.62	0.108
873.06	0.106
873.49	0.099
873.92	0.103
874.35	0.105
874.78	0.106
875.21	0.102
875.64	0.107
876.07	0.107
876.50	0.099
876.93	0.103
877.36	0.110
877.79	0.106
878.22	0.102
878.65	0.104
879.08	0.107
879.51	0.104
879.94	0.111
880.37	0.105
880.80	0.106
881.23	0.103
881.67	0.106
882.10	0.107
882.53	0.104
882.96	0.109
883.39	0.110
883.82	0.106
884.25	0.106
884.68	0.105
885.11	0.110
885.54	0.113
885.97	0.104
886.39	0.104
886.82	0.102
887.25	0.110
887.68	0.111
888.11	0.109
888.54	0.109
888.97	0.105
889.40	0.109
889.83	0.114
890.26	0.111
890.69	0.105
891.12	0.108
891.55	0.111
891.98	0.109
892.41	0.110
892.84	0.108
893.27	0.111
893.70	0.108
894.13	0.106
894.56	0.109
894.98	0.109
895.41	0.112
895.84	0.117
896.27	0.111
896.70	0.109
897.13	0.105
897.56	0.110
897.99	0.107
898.42	0.114
898.85	0.109
899.27	0.112
899.70	0.112
900.13	0.114
900.56	0.116
900.99	0.108
901.42	0.108
901.85	0.109
902.28	0.116
902.70	0.110
903.13	0.110
903.56	0.115
903.99	0.108
904.42	0.112
904.85	0.109
905.27	0.111
905.70	0.114
906.13	0.110
906.56	0.111
906.99	0.113
907.42	0.109
907.84	0.111
908.27	0.114
908.70	0.109
909.13	0.109
909.56	0.108
909.98	0.112
910.41	0.108
910.84	0.104
911.27	0.109
911.70	0.108
912.12	0.106
912.55	0.110
912.98	0.111
913.41	0.108
913.84	0.106
914.26	0.107
914.69	0.107
915.12	0.114
915.55	0.105
915.97	0.112
916.40	0.112
916.83	0.109
917.26	0.109
917.68	0.110
918.11	0.113
918.54	0.115
918.97	0.109
919.39	0.112
919.82	0.113
920.25	0.111
920.67	0.107
921.10	0.110
921.53	0.110
921.96	0.112
922.38	0.114
922.81	0.112
923.24	0.115
923.66	0.112
924.09	0.113
924.52	0.119
924.94	0.115
925.37	0.119
925.80	0.118
926.22	0.118
926.65	0.117
927.08	0.117
927.50	0.122
927.93	0.124
928.36	0.121
928.78	0.119
929.21	0.126
929.64	0.127
930.06	0.126
930.49	0.131
930.92	0.124
931.34	0.128
931.77	0.128
932.20	0.129
932.62	0.126
933.05	0.128
933.47	0.130
933.90	0.130
934.33	0.131
934.75	0.135
935.18	0.138
935.61	0.135
936.03	0.138
936.46	0.141
936.88	0.142
937.31	0.143
937.73	0.152
938.16	0.150
938.59	0.149
939.01	0.156
939.44	0.152
939.86	0.153
940.29	0.158
940.71	0.166
941.14	0.163
941.57	0.165
941.99	0.169
942.42	0.169
942.84	0.171
943.27	0.169
943.69	0.175
944.12	0.178
944.54	0.184
944.97	0.180
945.39	0.178
945.82	0.188
946.24	0.182
946.67	0.189
947.09	0.192
947.52	0.189
947.94	0.195
948.37	0.190
948.79	0.196
949.22	0.201
949.64	0.203
950.07	0.205
950.49	0.208
950.92	0.206
951.34	0.213
951.77	0.213
952.19	0.204
952.62	0.217
953.04	0.217
953.47	0.222
953.89	0.229
954.32	0.225
954.74	0.233
955.17	0.231
955.59	0.236
956.01	0.244
956.44	0.245
956.86	0.243
957.29	0.248
957.71	0.255
958.14	0.246
958.56	0.255
958.98	0.260
959.41	0.259
959.83	0.262
960.26	0.261
960.68	0.266
961.10	0.269
961.53	0.267
961.95	0.271
962.38	0.272
962.80	0.271
963.22	0.269
963.65	0.273
964.07	0.272
964.50	0.273
964.92	0.278
965.34	0.275
965.77	0.278
966.19	0.270
966.61	0.273
967.04	0.278
967.46	0.279
967.88	0.272
968.31	0.277
968.73	0.276
969.15	0.278
969.58	0.277
970.00	0.278
970.42	0.282
970.85	0.272
971.27	0.285
971.69	0.287
972.12	0.278
972.54	0.280
972.96	0.284
973.39	0.286
973.81	0.286
974.23	0.286
974.65	0.288
975.08	0.289
975.50	0.282
975.92	0.284
976.35	0.289
976.77	0.287
977.19	0.286
977.61	0.287
978.04	0.277
978.46	0.276
978.88	0.283
979.30	0.283
979.73	0.285
980.15	0.285
980.57	0.281
980.99	0.289
981.42	0.282
981.84	0.283
982.26	0.283
982.68	0.285
983.11	0.286
983.53	0.283
983.95	0.282
984.37	0.282
984.79	0.278
985.22	0.278
985.64	0.286
986.06	0.266
986.48	0.283
986.90	0.285
987.33	0.275
987.75	0.276
988.17	0.277
988.59	0.277
989.01	0.267
989.43	0.278
989.86	0.275
990.28	0.271
990.70	0.272
991.12	0.275
991.54	0.278
991.96	0.269
992.39	0.256
992.81	0.270
993.23	0.274
993.65	0.270
994.07	0.262
994.49	0.271
994.91	0.266
995.34	0.268
995.76	0.268
996.18	0.266
996.60	0.261
997.02	0.265
997.44	0.270
997.86	0.262
998.28	0.255
998.70	0.265
999.12	0.259
999.55	0.264
999.97	0.258
1000.39	0.257
1000.81	0.262
1001.23	0.247
1001.65	0.251
1002.07	0.256
1002.49	0.258
1002.91	0.257
1003.33	0.254
1003.75	0.252
1004.17	0.251
1004.59	0.255
1005.01	0.251
1005.43	0.246
1005.85	0.246
1006.28	0.244
1006.70	0.254
1007.12	0.246
1007.54	0.249
1007.96	0.250
1008.38	0.248
1008.80	0.250
1009.22	0.242
1009.64	0.242
1010.06	0.247
1010.48	0.238
1010.90	0.235
1011.32	0.251
1011.74	0.239
1012.16	0.234
1012.58	0.250
1013.00	0.235
1013.42	0.237
1013.84	0.239
1014.26	0.236
1014.67	0.233
1015.09	0.232
1015.51	0.226
1015.93	0.235
1016.35	0.212
1016.77	0.224
1017.19	0.230
1017.61	0.219
1018.03	0.215
1018.45	0.226
1018.87	0.232
1019.29	0.219
1019.71	0.221
1020.13	0.226
1020.55	0.232
1020.97	0.209
1021.38	0.216
1021.80	0.230
1022.22	0.214
1022.64	0.215
1023.06	0.226
1023.48	0.218
1023.90	0.207
1024.32	0.208
1024.74	0.205
1025.15	0.221
1025.57	0.217
1025.99	0.222
1026.41	0.223
1026.83	0.212
1027.25	0.219
1027.67	0.219
1028.08	0.205
1028.50	0.215
1028.92	0.213
1029.34	0.202
1029.76	0.209
1030.18	0.200
1030.60	0.223
1031.01	0.209
1031.43	0.187
1031.85	0.200
1032.27	0.203
1032.69	0.177
1033.10	0.193
1033.52	0.204
1033.94	0.210
1034.36	0.209
1034.78	0.203
1035.19	0.187
1035.61	0.203
1036.03	0.193
1036.45	0.191
1036.87	0.223
1037.28	0.190
1037.70	0.171
1038.12	0.203
1038.54	0.192
1038.95	0.191
1039.37	0.200
1039.79	0.190
1040.21	0.194
1040.62	0.169
1041.04	0.211
1041.46	0.211
1041.88	0.200
1042.29	0.191
1042.71	0.207
1043.13	0.186
1043.55	0.191
1043.96	0.190
1044.38	0.190
1044.80	0.229
1045.21	0.199
1045.63	0.204
1046.05	0.219
1046.47	0.189
1046.88	0.204
1047.30	0.207
1047.72	0.193
1048.13	0.171
1048.55	0.225
1048.97	0.209
1049.38	0.195
1049.80	0.172
1050.22	0.196
1050.63	0.203
1051.05	0.175
1051.47	0.206
1051.88	0.192
1052.30	0.180
1052.72	0.189
1053.13	0.204
1053.55	0.193
1053.97	0.213
1054.38	0.224
1054.80	0.225
1055.21	0.222
1055.63	0.198
1056.05	0.210
1056.46	0.246
1056.88	0.239
1057.29	0.227
1057.71	0.272
1058.13	0.220
1058.54	0.184
1058.96	0.264
1059.37	0.259
1059.79	0.242
1060.21	0.277
1060.62	0.263
1061.04	0.313
1061.45	0.260
1061.87	0.282
1062.28	0.335
1062.70	0.316
1063.12	0.308
1063.53	0.321
1063.95	0.340
1064.36	0.323
1064.78	0.291
1065.19	0.324
1065.61	0.401
1066.02	0.283
1066.44	0.371
1066.85	0.469
1067.27	0.310
1067.68	0.357
1068.10	0.503
1068.51	0.458
1068.93	0.423
1069.35	0.603
1069.76	0.500
1070.17	0.481
1070.59	0.319
1071.00	0.425
1071.42	0.573
1071.83	0.479
1072.25	0.503
1072.66	1.047
1073.08	0.695
1073.49	0.772
1073.91	0.713
1074.32	1.130
1074.74	1.168
1075.15	0.538
1075.57	0.791
1075.98	1.609
1076.40	1.266
1076.81	0.753
1077.22	-0.000
1077.64	-0.000
1078.05	-0.000
1078.47	-0.000
1078.88	-0.000
1079.30	1.384
1079.71	0.864
1080.12	-0.000
1080.54	-0.000
1080.95	-0.000
1081.37	-0.000
1081.78	-0.000
1082.19	-0.000
1082.61	-0.000
1083.02	-0.000
1083.44	-0.000
1083.85	-0.000
1084.26	-0.000
1084.68	-0.000
1085.09	-0.000
1085.50	-0.000
1085.92	-0.000
1086.33	-0.000
1086.74	-0.000
1087.16	-0.000
1087.57	-0.000
1087.98	-0.000
1088.40	-0.000
1088.81	-0.000
1089.22	-0.000
1089.64	-0.000
1090.05	-0.000
1090.46	-0.000
1090.88	-0.000
1091.29	-0.000
1091.70	-0.000
1092.12	-0.000
1092.53	-0.000
1092.94	-0.000
1093.36	-0.000
1093.77	-0.000
1094.18	-0.000
1094.59	-0.000
1095.01	-0.000
1095.42	-0.000
1095.83	-0.000
1096.25	-0.000
1096.66	-0.000
1097.07	-0.000
1097.48	-0.000
1097.90	-0.000
1098.31	-0.000
1098.72	-0.000
1099.13	-0.000
>>>>>End Processed Spectral Data<<<<<
