SpectraSuite Data File
++++++++++++++++++++++++++++++++++++
Date: Wed May 04 16:46:20 CEST 2016
User: spectrasuite
Dark Spectrum Present: Yes
Reference Spectrum Present: Yes
Number of Sampled Component Spectra: 1
Spectrometers: HR+C0708
Integration Time (usec): 1000 (HR+C0708)
Spectra Averaged: 10 (HR+C0708)
Boxcar Smoothing: 0 (HR+C0708)
Correct for Electrical Dark: No (HR+C0708)
Strobe/Lamp Enabled: No (HR+C0708)
Correct for Detector Non-linearity: No (HR+C0708)
Correct for Stray Light: No (HR+C0708)
Number of Pixels in Processed Spectrum: 2048
>>>>>Begin Processed Spectral Data<<<<<
188.76	-0.000
189.23	-0.000
189.70	-0.000
190.17	-0.000
190.64	-0.000
191.12	-0.000
191.59	-0.000
192.06	-0.000
192.53	-0.000
193.01	-0.000
193.48	-0.000
193.95	-0.000
194.42	-0.000
194.90	-0.000
195.37	-0.000
195.84	-0.000
196.31	-0.000
196.78	-0.000
197.26	-0.000
197.73	-0.000
198.20	-0.000
198.67	-0.000
199.14	-0.000
199.62	-0.000
200.09	-0.000
200.56	-0.000
201.03	-0.000
201.50	-0.000
201.97	-0.000
202.45	-0.000
202.92	-0.000
203.39	-0.000
203.86	-0.000
204.33	-0.000
204.80	-0.000
205.28	-0.000
205.75	-0.000
206.22	-0.000
206.69	-0.000
207.16	-0.000
207.63	-0.000
208.11	-0.000
208.58	-0.000
209.05	-0.000
209.52	-0.000
209.99	-0.000
210.46	-0.000
210.93	-0.000
211.41	-0.000
211.88	-0.000
212.35	-0.000
212.82	-0.000
213.29	-0.000
213.76	-0.000
214.23	-0.000
214.70	-0.000
215.18	-0.000
215.65	-0.000
216.12	-0.000
216.59	-0.000
217.06	1.106
217.53	-0.000
218.00	-0.000
218.47	1.905
218.94	-0.000
219.41	-0.000
219.89	-0.000
220.36	1.874
220.83	-0.000
221.30	-0.000
221.77	-0.000
222.24	-0.000
222.71	-0.000
223.18	-0.000
223.65	1.259
224.12	2.171
224.59	-0.000
225.06	-0.000
225.54	1.420
226.01	-0.000
226.48	-0.000
226.95	-0.000
227.42	1.463
227.89	-0.000
228.36	-0.000
228.83	-0.000
229.30	-0.000
229.77	-0.000
230.24	-0.000
230.71	1.959
231.18	-0.000
231.65	-0.000
232.12	-0.000
232.59	-0.000
233.06	-0.000
233.53	-0.000
234.00	2.478
234.47	-0.000
234.94	-0.000
235.41	-0.000
235.88	-0.000
236.35	-0.000
236.82	-0.000
237.29	2.734
237.76	3.369
238.23	-0.000
238.70	-0.000
239.17	3.276
239.64	-0.000
240.11	-0.000
240.58	2.895
241.05	-0.000
241.52	-0.000
241.99	-0.000
242.46	3.407
242.93	-0.000
243.40	-0.000
243.87	-0.000
244.34	2.560
244.81	3.330
245.28	-0.000
245.75	2.781
246.22	3.505
246.69	-0.000
247.16	3.393
247.63	3.500
248.10	3.337
248.57	-0.000
249.04	-0.000
249.51	3.301
249.98	-0.000
250.45	-0.000
250.92	2.707
251.39	2.800
251.85	2.591
252.32	2.352
252.79	2.158
253.26	2.006
253.73	1.851
254.20	1.719
254.67	1.604
255.14	1.535
255.61	1.467
256.08	1.395
256.55	1.332
257.02	1.290
257.49	1.224
257.95	1.185
258.42	1.148
258.89	1.109
259.36	1.079
259.83	1.046
260.30	1.030
260.77	1.000
261.24	0.974
261.71	0.953
262.17	0.934
262.64	0.916
263.11	0.900
263.58	0.884
264.05	0.862
264.52	0.845
264.99	0.830
265.46	0.820
265.92	0.804
266.39	0.791
266.86	0.784
267.33	0.770
267.80	0.760
268.27	0.750
268.74	0.743
269.20	0.730
269.67	0.720
270.14	0.712
270.61	0.706
271.08	0.696
271.55	0.687
272.01	0.684
272.48	0.671
272.95	0.664
273.42	0.660
273.89	0.654
274.36	0.646
274.82	0.641
275.29	0.632
275.76	0.628
276.23	0.627
276.70	0.618
277.16	0.616
277.63	0.610
278.10	0.607
278.57	0.605
279.04	0.603
279.50	0.595
279.97	0.594
280.44	0.591
280.91	0.587
281.38	0.581
281.84	0.580
282.31	0.580
282.78	0.580
283.25	0.575
283.72	0.577
284.18	0.576
284.65	0.572
285.12	0.573
285.59	0.572
286.05	0.571
286.52	0.569
286.99	0.568
287.46	0.571
287.92	0.567
288.39	0.564
288.86	0.563
289.33	0.565
289.79	0.563
290.26	0.561
290.73	0.558
291.20	0.554
291.66	0.554
292.13	0.551
292.60	0.548
293.07	0.544
293.53	0.541
294.00	0.536
294.47	0.530
294.93	0.524
295.40	0.518
295.87	0.512
296.34	0.506
296.80	0.501
297.27	0.490
297.74	0.484
298.20	0.479
298.67	0.471
299.14	0.464
299.60	0.455
300.07	0.447
300.54	0.442
301.01	0.434
301.47	0.429
301.94	0.423
302.41	0.412
302.87	0.405
303.34	0.400
303.81	0.392
304.27	0.390
304.74	0.380
305.21	0.372
305.67	0.368
306.14	0.364
306.61	0.359
307.07	0.350
307.54	0.347
308.01	0.343
308.47	0.337
308.94	0.331
309.40	0.330
309.87	0.325
310.34	0.324
310.80	0.320
311.27	0.315
311.74	0.312
312.20	0.308
312.67	0.308
313.13	0.303
313.60	0.299
314.07	0.296
314.53	0.294
315.00	0.290
315.47	0.291
315.93	0.290
316.40	0.286
316.86	0.285
317.33	0.281
317.80	0.283
318.26	0.280
318.73	0.280
319.19	0.280
319.66	0.276
320.13	0.276
320.59	0.274
321.06	0.274
321.52	0.268
321.99	0.270
322.45	0.267
322.92	0.267
323.39	0.266
323.85	0.264
324.32	0.263
324.78	0.262
325.25	0.256
325.71	0.259
326.18	0.256
326.64	0.253
327.11	0.250
327.58	0.253
328.04	0.254
328.51	0.250
328.97	0.247
329.44	0.243
329.90	0.241
330.37	0.243
330.83	0.240
331.30	0.240
331.76	0.237
332.23	0.236
332.69	0.233
333.16	0.231
333.62	0.231
334.09	0.229
334.56	0.227
335.02	0.222
335.49	0.221
335.95	0.220
336.42	0.219
336.88	0.215
337.35	0.213
337.81	0.214
338.28	0.215
338.74	0.213
339.20	0.214
339.67	0.212
340.13	0.212
340.60	0.210
341.06	0.206
341.53	0.205
341.99	0.204
342.46	0.201
342.92	0.201
343.39	0.197
343.85	0.194
344.32	0.196
344.78	0.196
345.25	0.198
345.71	0.199
346.17	0.199
346.64	0.198
347.10	0.196
347.57	0.191
348.03	0.187
348.50	0.187
348.96	0.191
349.43	0.190
349.89	0.192
350.35	0.189
350.82	0.189
351.28	0.191
351.75	0.189
352.21	0.194
352.67	0.187
353.14	0.188
353.60	0.181
354.07	0.181
354.53	0.181
355.00	0.182
355.46	0.179
355.92	0.174
356.39	0.174
356.85	0.173
357.31	0.169
357.78	0.171
358.24	0.173
358.71	0.171
359.17	0.171
359.63	0.167
360.10	0.169
360.56	0.167
361.03	0.166
361.49	0.167
361.95	0.165
362.42	0.166
362.88	0.169
363.34	0.167
363.81	0.163
364.27	0.166
364.73	0.166
365.20	0.167
365.66	0.163
366.12	0.165
366.59	0.164
367.05	0.163
367.51	0.164
367.98	0.162
368.44	0.164
368.90	0.162
369.37	0.160
369.83	0.160
370.29	0.159
370.76	0.158
371.22	0.160
371.68	0.159
372.15	0.157
372.61	0.155
373.07	0.156
373.54	0.154
374.00	0.156
374.46	0.155
374.92	0.158
375.39	0.157
375.85	0.158
376.31	0.155
376.78	0.153
377.24	0.154
377.70	0.155
378.16	0.155
378.63	0.154
379.09	0.154
379.55	0.153
380.01	0.156
380.48	0.155
380.94	0.153
381.40	0.152
381.87	0.154
382.33	0.153
382.79	0.150
383.25	0.152
383.72	0.154
384.18	0.152
384.64	0.154
385.10	0.152
385.56	0.151
386.03	0.151
386.49	0.148
386.95	0.150
387.41	0.149
387.88	0.146
388.34	0.146
388.80	0.152
389.26	0.151
389.72	0.151
390.19	0.146
390.65	0.143
391.11	0.147
391.57	0.147
392.04	0.147
392.50	0.147
392.96	0.146
393.42	0.147
393.88	0.149
394.34	0.146
394.81	0.146
395.27	0.147
395.73	0.143
396.19	0.143
396.65	0.144
397.12	0.141
397.58	0.143
398.04	0.142
398.50	0.144
398.96	0.142
399.42	0.146
399.89	0.147
400.35	0.144
400.81	0.143
401.27	0.144
401.73	0.144
402.19	0.143
402.65	0.138
403.12	0.143
403.58	0.139
404.04	0.139
404.50	0.138
404.96	0.138
405.42	0.138
405.88	0.138
406.34	0.143
406.81	0.141
407.27	0.138
407.73	0.136
408.19	0.137
408.65	0.136
409.11	0.136
409.57	0.134
410.03	0.137
410.49	0.137
410.96	0.135
411.42	0.138
411.88	0.133
412.34	0.128
412.80	0.135
413.26	0.136
413.72	0.133
414.18	0.132
414.64	0.135
415.10	0.133
415.56	0.135
416.02	0.133
416.48	0.133
416.95	0.134
417.41	0.132
417.87	0.132
418.33	0.132
418.79	0.130
419.25	0.132
419.71	0.132
420.17	0.131
420.63	0.126
421.09	0.124
421.55	0.131
422.01	0.130
422.47	0.133
422.93	0.134
423.39	0.132
423.85	0.128
424.31	0.129
424.77	0.129
425.23	0.130
425.69	0.133
426.15	0.134
426.61	0.132
427.07	0.125
427.53	0.126
427.99	0.128
428.45	0.131
428.91	0.125
429.37	0.127
429.83	0.125
430.29	0.128
430.75	0.131
431.21	0.133
431.67	0.133
432.13	0.132
432.59	0.125
433.05	0.127
433.51	0.124
433.97	0.122
434.43	0.132
434.89	0.132
435.35	0.129
435.81	0.127
436.27	0.127
436.73	0.125
437.19	0.131
437.65	0.127
438.11	0.128
438.57	0.128
439.03	0.127
439.48	0.129
439.94	0.128
440.40	0.129
440.86	0.123
441.32	0.126
441.78	0.123
442.24	0.128
442.70	0.126
443.16	0.123
443.62	0.127
444.08	0.124
444.54	0.125
444.99	0.126
445.45	0.123
445.91	0.126
446.37	0.124
446.83	0.124
447.29	0.124
447.75	0.123
448.21	0.126
448.67	0.124
449.12	0.125
449.58	0.123
450.04	0.126
450.50	0.125
450.96	0.123
451.42	0.125
451.88	0.125
452.34	0.122
452.79	0.124
453.25	0.124
453.71	0.124
454.17	0.121
454.63	0.128
455.09	0.125
455.55	0.123
456.00	0.121
456.46	0.123
456.92	0.121
457.38	0.122
457.84	0.124
458.30	0.122
458.75	0.122
459.21	0.122
459.67	0.121
460.13	0.120
460.59	0.120
461.04	0.121
461.50	0.120
461.96	0.120
462.42	0.120
462.88	0.119
463.33	0.120
463.79	0.120
464.25	0.120
464.71	0.123
465.17	0.121
465.62	0.120
466.08	0.122
466.54	0.124
467.00	0.121
467.46	0.123
467.91	0.123
468.37	0.122
468.83	0.122
469.29	0.122
469.74	0.122
470.20	0.124
470.66	0.121
471.12	0.122
471.57	0.122
472.03	0.118
472.49	0.122
472.95	0.123
473.40	0.124
473.86	0.123
474.32	0.122
474.78	0.121
475.23	0.123
475.69	0.122
476.15	0.123
476.60	0.122
477.06	0.123
477.52	0.121
477.98	0.120
478.43	0.123
478.89	0.123
479.35	0.123
479.80	0.122
480.26	0.118
480.72	0.121
481.18	0.120
481.63	0.122
482.09	0.121
482.55	0.118
483.00	0.118
483.46	0.119
483.92	0.121
484.37	0.117
484.83	0.118
485.29	0.120
485.74	0.117
486.20	0.120
486.66	0.121
487.11	0.119
487.57	0.119
488.03	0.118
488.48	0.122
488.94	0.119
489.40	0.118
489.85	0.119
490.31	0.120
490.77	0.118
491.22	0.120
491.68	0.118
492.13	0.119
492.59	0.121
493.05	0.117
493.50	0.119
493.96	0.119
494.42	0.123
494.87	0.121
495.33	0.118
495.78	0.117
496.24	0.119
496.70	0.119
497.15	0.121
497.61	0.120
498.06	0.118
498.52	0.120
498.98	0.117
499.43	0.118
499.89	0.119
500.34	0.118
500.80	0.119
501.25	0.116
501.71	0.116
502.17	0.117
502.62	0.116
503.08	0.114
503.53	0.117
503.99	0.116
504.44	0.117
504.90	0.117
505.36	0.116
505.81	0.116
506.27	0.113
506.72	0.116
507.18	0.116
507.63	0.117
508.09	0.117
508.54	0.114
509.00	0.116
509.45	0.117
509.91	0.115
510.36	0.116
510.82	0.118
511.27	0.114
511.73	0.117
512.19	0.117
512.64	0.114
513.10	0.116
513.55	0.118
514.01	0.116
514.46	0.118
514.92	0.117
515.37	0.116
515.83	0.116
516.28	0.116
516.73	0.115
517.19	0.116
517.64	0.117
518.10	0.117
518.55	0.115
519.01	0.117
519.46	0.115
519.92	0.114
520.37	0.114
520.83	0.114
521.28	0.112
521.74	0.115
522.19	0.113
522.65	0.113
523.10	0.114
523.55	0.115
524.01	0.114
524.46	0.115
524.92	0.114
525.37	0.115
525.83	0.115
526.28	0.115
526.73	0.114
527.19	0.114
527.64	0.115
528.10	0.116
528.55	0.114
529.01	0.114
529.46	0.114
529.91	0.114
530.37	0.113
530.82	0.117
531.28	0.115
531.73	0.114
532.18	0.115
532.64	0.116
533.09	0.116
533.54	0.115
534.00	0.117
534.45	0.114
534.91	0.115
535.36	0.115
535.81	0.115
536.27	0.115
536.72	0.115
537.17	0.117
537.63	0.115
538.08	0.118
538.54	0.117
538.99	0.120
539.44	0.117
539.90	0.118
540.35	0.117
540.80	0.117
541.26	0.116
541.71	0.119
542.16	0.117
542.62	0.120
543.07	0.119
543.52	0.118
543.98	0.119
544.43	0.118
544.88	0.117
545.34	0.121
545.79	0.121
546.24	0.119
546.69	0.119
547.15	0.120
547.60	0.122
548.05	0.121
548.51	0.121
548.96	0.121
549.41	0.120
549.86	0.121
550.32	0.123
550.77	0.122
551.22	0.122
551.68	0.123
552.13	0.122
552.58	0.123
553.03	0.124
553.49	0.125
553.94	0.125
554.39	0.125
554.84	0.126
555.30	0.125
555.75	0.126
556.20	0.127
556.65	0.127
557.11	0.127
557.56	0.129
558.01	0.130
558.46	0.127
558.92	0.131
559.37	0.131
559.82	0.129
560.27	0.128
560.72	0.132
561.18	0.132
561.63	0.132
562.08	0.133
562.53	0.131
562.99	0.133
563.44	0.133
563.89	0.134
564.34	0.136
564.79	0.136
565.25	0.136
565.70	0.136
566.15	0.136
566.60	0.138
567.05	0.137
567.50	0.141
567.96	0.139
568.41	0.141
568.86	0.139
569.31	0.139
569.76	0.140
570.21	0.141
570.67	0.142
571.12	0.141
571.57	0.144
572.02	0.144
572.47	0.144
572.92	0.146
573.37	0.148
573.83	0.146
574.28	0.149
574.73	0.147
575.18	0.149
575.63	0.150
576.08	0.149
576.53	0.151
576.98	0.151
577.44	0.153
577.89	0.152
578.34	0.155
578.79	0.155
579.24	0.155
579.69	0.155
580.14	0.158
580.59	0.159
581.04	0.160
581.49	0.160
581.95	0.161
582.40	0.163
582.85	0.165
583.30	0.165
583.75	0.167
584.20	0.166
584.65	0.167
585.10	0.171
585.55	0.172
586.00	0.171
586.45	0.174
586.90	0.175
587.35	0.176
587.80	0.179
588.25	0.179
588.71	0.180
589.16	0.185
589.61	0.183
590.06	0.184
590.51	0.187
590.96	0.186
591.41	0.190
591.86	0.194
592.31	0.191
592.76	0.193
593.21	0.194
593.66	0.197
594.11	0.200
594.56	0.200
595.01	0.201
595.46	0.203
595.91	0.205
596.36	0.206
596.81	0.210
597.26	0.209
597.71	0.211
598.16	0.213
598.61	0.216
599.06	0.216
599.51	0.218
599.96	0.219
600.41	0.221
600.86	0.224
601.31	0.223
601.76	0.227
602.21	0.229
602.65	0.230
603.10	0.231
603.55	0.233
604.00	0.235
604.45	0.235
604.90	0.236
605.35	0.239
605.80	0.238
606.25	0.242
606.70	0.244
607.15	0.243
607.60	0.244
608.05	0.246
608.50	0.248
608.95	0.248
609.39	0.249
609.84	0.251
610.29	0.253
610.74	0.252
611.19	0.255
611.64	0.254
612.09	0.256
612.54	0.256
612.99	0.256
613.44	0.258
613.88	0.259
614.33	0.259
614.78	0.263
615.23	0.261
615.68	0.260
616.13	0.263
616.58	0.262
617.03	0.265
617.47	0.264
617.92	0.268
618.37	0.266
618.82	0.267
619.27	0.266
619.72	0.268
620.17	0.267
620.61	0.268
621.06	0.268
621.51	0.270
621.96	0.272
622.41	0.269
622.86	0.269
623.30	0.271
623.75	0.271
624.20	0.274
624.65	0.273
625.10	0.275
625.54	0.274
625.99	0.274
626.44	0.277
626.89	0.276
627.34	0.278
627.78	0.281
628.23	0.282
628.68	0.280
629.13	0.281
629.58	0.283
630.02	0.284
630.47	0.287
630.92	0.287
631.37	0.290
631.81	0.290
632.26	0.289
632.71	0.295
633.16	0.296
633.61	0.296
634.05	0.298
634.50	0.298
634.95	0.302
635.40	0.305
635.84	0.305
636.29	0.308
636.74	0.311
637.18	0.313
637.63	0.314
638.08	0.315
638.53	0.316
638.97	0.318
639.42	0.323
639.87	0.323
640.32	0.328
640.76	0.327
641.21	0.332
641.66	0.334
642.10	0.338
642.55	0.340
643.00	0.342
643.44	0.344
643.89	0.346
644.34	0.350
644.79	0.355
645.23	0.356
645.68	0.357
646.13	0.362
646.57	0.363
647.02	0.367
647.47	0.369
647.91	0.370
648.36	0.373
648.81	0.376
649.25	0.378
649.70	0.380
650.15	0.384
650.59	0.387
651.04	0.389
651.48	0.390
651.93	0.393
652.38	0.397
652.82	0.397
653.27	0.399
653.72	0.402
654.16	0.402
654.61	0.408
655.06	0.407
655.50	0.406
655.95	0.405
656.39	0.408
656.84	0.418
657.29	0.426
657.73	0.420
658.18	0.418
658.62	0.422
659.07	0.425
659.52	0.422
659.96	0.425
660.41	0.426
660.85	0.428
661.30	0.430
661.74	0.430
662.19	0.433
662.64	0.431
663.08	0.429
663.53	0.432
663.97	0.429
664.42	0.430
664.86	0.430
665.31	0.430
665.75	0.429
666.20	0.427
666.65	0.428
667.09	0.430
667.54	0.425
667.98	0.423
668.43	0.426
668.87	0.421
669.32	0.419
669.76	0.415
670.21	0.415
670.65	0.410
671.10	0.406
671.54	0.403
671.99	0.400
672.43	0.394
672.88	0.390
673.32	0.386
673.77	0.382
674.21	0.375
674.66	0.369
675.10	0.365
675.55	0.361
675.99	0.354
676.44	0.349
676.88	0.343
677.33	0.337
677.77	0.330
678.22	0.323
678.66	0.318
679.11	0.310
679.55	0.304
679.99	0.297
680.44	0.291
680.88	0.282
681.33	0.276
681.77	0.268
682.22	0.260
682.66	0.256
683.11	0.249
683.55	0.246
683.99	0.238
684.44	0.233
684.88	0.228
685.33	0.220
685.77	0.214
686.21	0.208
686.66	0.202
687.10	0.197
687.55	0.192
687.99	0.189
688.44	0.183
688.88	0.175
689.32	0.172
689.77	0.168
690.21	0.166
690.65	0.161
691.10	0.155
691.54	0.153
691.99	0.149
692.43	0.147
692.87	0.145
693.32	0.140
693.76	0.135
694.20	0.134
694.65	0.132
695.09	0.128
695.53	0.126
695.98	0.124
696.42	0.123
696.86	0.121
697.31	0.117
697.75	0.115
698.19	0.116
698.64	0.110
699.08	0.110
699.52	0.109
699.97	0.107
700.41	0.107
700.85	0.107
701.30	0.102
701.74	0.103
702.18	0.101
702.63	0.099
703.07	0.097
703.51	0.097
703.96	0.097
704.40	0.094
704.84	0.094
705.28	0.094
705.73	0.093
706.17	0.092
706.61	0.095
707.06	0.089
707.50	0.092
707.94	0.093
708.38	0.088
708.83	0.091
709.27	0.089
709.71	0.090
710.15	0.086
710.60	0.090
711.04	0.084
711.48	0.086
711.92	0.087
712.37	0.086
712.81	0.086
713.25	0.086
713.69	0.083
714.13	0.083
714.58	0.084
715.02	0.083
715.46	0.083
715.90	0.084
716.35	0.083
716.79	0.086
717.23	0.085
717.67	0.083
718.11	0.083
718.56	0.081
719.00	0.084
719.44	0.081
719.88	0.084
720.32	0.085
720.76	0.080
721.21	0.083
721.65	0.084
722.09	0.085
722.53	0.082
722.97	0.082
723.41	0.082
723.86	0.084
724.30	0.081
724.74	0.083
725.18	0.081
725.62	0.081
726.06	0.082
726.50	0.084
726.95	0.083
727.39	0.085
727.83	0.085
728.27	0.086
728.71	0.083
729.15	0.084
729.59	0.081
730.03	0.084
730.48	0.083
730.92	0.084
731.36	0.082
731.80	0.084
732.24	0.087
732.68	0.084
733.12	0.082
733.56	0.083
734.00	0.087
734.44	0.085
734.89	0.086
735.33	0.083
735.77	0.086
736.21	0.086
736.65	0.084
737.09	0.087
737.53	0.087
737.97	0.088
738.41	0.086
738.85	0.086
739.29	0.086
739.73	0.088
740.17	0.084
740.61	0.085
741.05	0.088
741.49	0.087
741.93	0.085
742.37	0.084
742.81	0.087
743.26	0.085
743.70	0.086
744.14	0.087
744.58	0.086
745.02	0.087
745.46	0.086
745.90	0.085
746.34	0.084
746.78	0.087
747.22	0.087
747.66	0.086
748.10	0.087
748.54	0.087
748.98	0.087
749.42	0.086
749.86	0.088
750.29	0.086
750.73	0.086
751.17	0.086
751.61	0.088
752.05	0.085
752.49	0.085
752.93	0.085
753.37	0.087
753.81	0.085
754.25	0.084
754.69	0.087
755.13	0.087
755.57	0.085
756.01	0.085
756.45	0.081
756.89	0.085
757.33	0.084
757.77	0.083
758.21	0.086
758.64	0.084
759.08	0.083
759.52	0.084
759.96	0.083
760.40	0.083
760.84	0.082
761.28	0.083
761.72	0.084
762.16	0.084
762.60	0.082
763.03	0.085
763.47	0.084
763.91	0.083
764.35	0.081
764.79	0.083
765.23	0.081
765.67	0.083
766.11	0.084
766.54	0.084
766.98	0.080
767.42	0.084
767.86	0.085
768.30	0.084
768.74	0.082
769.17	0.084
769.61	0.085
770.05	0.084
770.49	0.087
770.93	0.083
771.37	0.085
771.80	0.081
772.24	0.080
772.68	0.081
773.12	0.084
773.56	0.085
774.00	0.084
774.43	0.083
774.87	0.082
775.31	0.084
775.75	0.082
776.19	0.080
776.62	0.086
777.06	0.082
777.50	0.084
777.94	0.080
778.37	0.083
778.81	0.085
779.25	0.081
779.69	0.084
780.13	0.080
780.56	0.079
781.00	0.083
781.44	0.081
781.88	0.083
782.31	0.082
782.75	0.081
783.19	0.081
783.63	0.086
784.06	0.081
784.50	0.083
784.94	0.083
785.37	0.081
785.81	0.081
786.25	0.079
786.69	0.082
787.12	0.082
787.56	0.082
788.00	0.083
788.43	0.084
788.87	0.084
789.31	0.086
789.75	0.083
790.18	0.083
790.62	0.082
791.06	0.082
791.49	0.086
791.93	0.080
792.37	0.079
792.80	0.086
793.24	0.081
793.68	0.084
794.11	0.084
794.55	0.083
794.99	0.082
795.42	0.083
795.86	0.086
796.30	0.083
796.73	0.082
797.17	0.080
797.61	0.087
798.04	0.085
798.48	0.082
798.91	0.084
799.35	0.082
799.79	0.080
800.22	0.084
800.66	0.082
801.10	0.082
801.53	0.085
801.97	0.081
802.40	0.083
802.84	0.082
803.28	0.084
803.71	0.085
804.15	0.088
804.58	0.085
805.02	0.084
805.46	0.082
805.89	0.083
806.33	0.084
806.76	0.082
807.20	0.084
807.63	0.080
808.07	0.085
808.51	0.082
808.94	0.085
809.38	0.080
809.81	0.086
810.25	0.086
810.68	0.082
811.12	0.085
811.55	0.084
811.99	0.082
812.42	0.082
812.86	0.082
813.29	0.083
813.73	0.087
814.17	0.080
814.60	0.078
815.04	0.082
815.47	0.083
815.91	0.080
816.34	0.084
816.78	0.085
817.21	0.085
817.65	0.084
818.08	0.085
818.52	0.082
818.95	0.087
819.39	0.084
819.82	0.084
820.25	0.085
820.69	0.084
821.12	0.088
821.56	0.082
821.99	0.085
822.43	0.081
822.86	0.086
823.30	0.083
823.73	0.082
824.17	0.088
824.60	0.086
825.04	0.086
825.47	0.085
825.90	0.082
826.34	0.084
826.77	0.083
827.21	0.088
827.64	0.087
828.08	0.088
828.51	0.088
828.94	0.088
829.38	0.089
829.81	0.088
830.25	0.092
830.68	0.092
831.11	0.090
831.55	0.090
831.98	0.091
832.42	0.089
832.85	0.092
833.28	0.091
833.72	0.094
834.15	0.096
834.58	0.091
835.02	0.087
835.45	0.093
835.88	0.097
836.32	0.090
836.75	0.093
837.19	0.092
837.62	0.091
838.05	0.096
838.49	0.093
838.92	0.090
839.35	0.092
839.79	0.094
840.22	0.087
840.65	0.095
841.09	0.089
841.52	0.098
841.95	0.097
842.39	0.088
842.82	0.096
843.25	0.094
843.68	0.096
844.12	0.095
844.55	0.091
844.98	0.091
845.42	0.090
845.85	0.092
846.28	0.095
846.71	0.090
847.15	0.092
847.58	0.100
848.01	0.096
848.45	0.093
848.88	0.093
849.31	0.091
849.74	0.093
850.18	0.089
850.61	0.098
851.04	0.093
851.47	0.094
851.91	0.092
852.34	0.098
852.77	0.094
853.20	0.094
853.64	0.095
854.07	0.098
854.50	0.097
854.93	0.090
855.36	0.093
855.80	0.097
856.23	0.094
856.66	0.094
857.09	0.099
857.52	0.098
857.96	0.096
858.39	0.100
858.82	0.094
859.25	0.099
859.68	0.097
860.12	0.094
860.55	0.097
860.98	0.101
861.41	0.100
861.84	0.101
862.27	0.101
862.71	0.099
863.14	0.100
863.57	0.100
864.00	0.097
864.43	0.094
864.86	0.105
865.30	0.098
865.73	0.102
866.16	0.096
866.59	0.109
867.02	0.095
867.45	0.094
867.88	0.107
868.31	0.095
868.75	0.096
869.18	0.100
869.61	0.104
870.04	0.098
870.47	0.100
870.90	0.105
871.33	0.105
871.76	0.100
872.19	0.095
872.62	0.103
873.06	0.103
873.49	0.100
873.92	0.105
874.35	0.102
874.78	0.108
875.21	0.097
875.64	0.105
876.07	0.104
876.50	0.103
876.93	0.101
877.36	0.106
877.79	0.102
878.22	0.098
878.65	0.111
879.08	0.115
879.51	0.102
879.94	0.101
880.37	0.104
880.80	0.096
881.23	0.109
881.67	0.101
882.10	0.104
882.53	0.105
882.96	0.103
883.39	0.105
883.82	0.101
884.25	0.104
884.68	0.104
885.11	0.108
885.54	0.111
885.97	0.100
886.39	0.104
886.82	0.102
887.25	0.103
887.68	0.106
888.11	0.102
888.54	0.106
888.97	0.101
889.40	0.107
889.83	0.106
890.26	0.107
890.69	0.104
891.12	0.104
891.55	0.104
891.98	0.107
892.41	0.107
892.84	0.111
893.27	0.107
893.70	0.101
894.13	0.107
894.56	0.108
894.98	0.108
895.41	0.108
895.84	0.111
896.27	0.108
896.70	0.105
897.13	0.109
897.56	0.104
897.99	0.106
898.42	0.108
898.85	0.109
899.27	0.108
899.70	0.109
900.13	0.110
900.56	0.112
900.99	0.107
901.42	0.104
901.85	0.107
902.28	0.114
902.70	0.108
903.13	0.111
903.56	0.112
903.99	0.110
904.42	0.108
904.85	0.108
905.27	0.109
905.70	0.115
906.13	0.109
906.56	0.110
906.99	0.109
907.42	0.108
907.84	0.108
908.27	0.113
908.70	0.110
909.13	0.107
909.56	0.106
909.98	0.107
910.41	0.107
910.84	0.106
911.27	0.106
911.70	0.106
912.12	0.107
912.55	0.107
912.98	0.103
913.41	0.106
913.84	0.105
914.26	0.107
914.69	0.108
915.12	0.113
915.55	0.105
915.97	0.106
916.40	0.109
916.83	0.108
917.26	0.108
917.68	0.111
918.11	0.114
918.54	0.112
918.97	0.107
919.39	0.111
919.82	0.111
920.25	0.110
920.67	0.111
921.10	0.108
921.53	0.107
921.96	0.108
922.38	0.110
922.81	0.111
923.24	0.114
923.66	0.113
924.09	0.113
924.52	0.115
924.94	0.115
925.37	0.118
925.80	0.116
926.22	0.115
926.65	0.118
927.08	0.115
927.50	0.119
927.93	0.120
928.36	0.119
928.78	0.122
929.21	0.123
929.64	0.123
930.06	0.128
930.49	0.129
930.92	0.127
931.34	0.124
931.77	0.125
932.20	0.127
932.62	0.122
933.05	0.122
933.47	0.127
933.90	0.130
934.33	0.131
934.75	0.132
935.18	0.134
935.61	0.131
936.03	0.136
936.46	0.137
936.88	0.140
937.31	0.145
937.73	0.147
938.16	0.144
938.59	0.146
939.01	0.155
939.44	0.151
939.86	0.153
940.29	0.157
940.71	0.161
941.14	0.157
941.57	0.165
941.99	0.165
942.42	0.166
942.84	0.168
943.27	0.170
943.69	0.172
944.12	0.174
944.54	0.174
944.97	0.175
945.39	0.191
945.82	0.188
946.24	0.180
946.67	0.197
947.09	0.194
947.52	0.195
947.94	0.186
948.37	0.187
948.79	0.195
949.22	0.197
949.64	0.202
950.07	0.205
950.49	0.211
950.92	0.204
951.34	0.212
951.77	0.212
952.19	0.209
952.62	0.216
953.04	0.226
953.47	0.223
953.89	0.227
954.32	0.225
954.74	0.234
955.17	0.231
955.59	0.232
956.01	0.238
956.44	0.240
956.86	0.247
957.29	0.250
957.71	0.257
958.14	0.253
958.56	0.253
958.98	0.255
959.41	0.257
959.83	0.259
960.26	0.259
960.68	0.262
961.10	0.269
961.53	0.265
961.95	0.266
962.38	0.274
962.80	0.269
963.22	0.270
963.65	0.267
964.07	0.270
964.50	0.276
964.92	0.276
965.34	0.279
965.77	0.278
966.19	0.273
966.61	0.275
967.04	0.275
967.46	0.278
967.88	0.273
968.31	0.276
968.73	0.277
969.15	0.270
969.58	0.284
970.00	0.279
970.42	0.286
970.85	0.277
971.27	0.278
971.69	0.281
972.12	0.275
972.54	0.276
972.96	0.280
973.39	0.286
973.81	0.282
974.23	0.285
974.65	0.281
975.08	0.283
975.50	0.279
975.92	0.279
976.35	0.279
976.77	0.280
977.19	0.283
977.61	0.287
978.04	0.282
978.46	0.282
978.88	0.284
979.30	0.288
979.73	0.290
980.15	0.281
980.57	0.288
980.99	0.289
981.42	0.276
981.84	0.284
982.26	0.282
982.68	0.290
983.11	0.284
983.53	0.286
983.95	0.282
984.37	0.280
984.79	0.273
985.22	0.281
985.64	0.281
986.06	0.271
986.48	0.282
986.90	0.277
987.33	0.278
987.75	0.276
988.17	0.279
988.59	0.274
989.01	0.269
989.43	0.273
989.86	0.276
990.28	0.266
990.70	0.269
991.12	0.269
991.54	0.271
991.96	0.273
992.39	0.269
992.81	0.278
993.23	0.270
993.65	0.263
994.07	0.260
994.49	0.270
994.91	0.263
995.34	0.261
995.76	0.267
996.18	0.267
996.60	0.255
997.02	0.260
997.44	0.264
997.86	0.262
998.28	0.252
998.70	0.262
999.12	0.259
999.55	0.260
999.97	0.257
1000.39	0.257
1000.81	0.255
1001.23	0.248
1001.65	0.257
1002.07	0.249
1002.49	0.253
1002.91	0.246
1003.33	0.252
1003.75	0.253
1004.17	0.252
1004.59	0.257
1005.01	0.257
1005.43	0.233
1005.85	0.244
1006.28	0.248
1006.70	0.249
1007.12	0.246
1007.54	0.247
1007.96	0.241
1008.38	0.244
1008.80	0.250
1009.22	0.243
1009.64	0.241
1010.06	0.245
1010.48	0.236
1010.90	0.244
1011.32	0.246
1011.74	0.237
1012.16	0.239
1012.58	0.250
1013.00	0.232
1013.42	0.230
1013.84	0.231
1014.26	0.229
1014.67	0.231
1015.09	0.233
1015.51	0.239
1015.93	0.230
1016.35	0.220
1016.77	0.227
1017.19	0.228
1017.61	0.216
1018.03	0.219
1018.45	0.225
1018.87	0.230
1019.29	0.221
1019.71	0.213
1020.13	0.223
1020.55	0.233
1020.97	0.209
1021.38	0.215
1021.80	0.220
1022.22	0.220
1022.64	0.212
1023.06	0.228
1023.48	0.221
1023.90	0.218
1024.32	0.204
1024.74	0.208
1025.15	0.220
1025.57	0.210
1025.99	0.221
1026.41	0.217
1026.83	0.203
1027.25	0.205
1027.67	0.218
1028.08	0.203
1028.50	0.206
1028.92	0.211
1029.34	0.216
1029.76	0.213
1030.18	0.210
1030.60	0.213
1031.01	0.212
1031.43	0.187
1031.85	0.205
1032.27	0.203
1032.69	0.186
1033.10	0.202
1033.52	0.202
1033.94	0.213
1034.36	0.197
1034.78	0.200
1035.19	0.195
1035.61	0.214
1036.03	0.193
1036.45	0.199
1036.87	0.216
1037.28	0.188
1037.70	0.195
1038.12	0.203
1038.54	0.185
1038.95	0.197
1039.37	0.191
1039.79	0.204
1040.21	0.211
1040.62	0.173
1041.04	0.209
1041.46	0.230
1041.88	0.197
1042.29	0.207
1042.71	0.197
1043.13	0.187
1043.55	0.189
1043.96	0.186
1044.38	0.225
1044.80	0.206
1045.21	0.196
1045.63	0.223
1046.05	0.198
1046.47	0.199
1046.88	0.198
1047.30	0.192
1047.72	0.193
1048.13	0.171
1048.55	0.196
1048.97	0.236
1049.38	0.199
1049.80	0.193
1050.22	0.207
1050.63	0.214
1051.05	0.166
1051.47	0.225
1051.88	0.220
1052.30	0.207
1052.72	0.198
1053.13	0.226
1053.55	0.223
1053.97	0.206
1054.38	0.178
1054.80	0.244
1055.21	0.209
1055.63	0.195
1056.05	0.211
1056.46	0.251
1056.88	0.221
1057.29	0.229
1057.71	0.259
1058.13	0.235
1058.54	0.235
1058.96	0.239
1059.37	0.277
1059.79	0.247
1060.21	0.242
1060.62	0.288
1061.04	0.327
1061.45	0.312
1061.87	0.288
1062.28	0.347
1062.70	0.325
1063.12	0.328
1063.53	0.269
1063.95	0.424
1064.36	0.332
1064.78	0.273
1065.19	0.340
1065.61	0.386
1066.02	0.255
1066.44	0.334
1066.85	0.503
1067.27	0.354
1067.68	0.272
1068.10	0.407
1068.51	0.388
1068.93	0.416
1069.35	0.467
1069.76	0.655
1070.17	0.487
1070.59	0.371
1071.00	0.544
1071.42	0.525
1071.83	0.509
1072.25	0.551
1072.66	0.789
1073.08	0.695
1073.49	0.922
1073.91	0.736
1074.32	2.197
1074.74	1.155
1075.15	1.245
1075.57	-0.000
1075.98	1.495
1076.40	-0.000
1076.81	-0.000
1077.22	-0.000
1077.64	-0.000
1078.05	-0.000
1078.47	-0.000
1078.88	-0.000
1079.30	1.489
1079.71	-0.000
1080.12	-0.000
1080.54	-0.000
1080.95	-0.000
1081.37	-0.000
1081.78	-0.000
1082.19	-0.000
1082.61	-0.000
1083.02	-0.000
1083.44	-0.000
1083.85	-0.000
1084.26	-0.000
1084.68	-0.000
1085.09	-0.000
1085.50	-0.000
1085.92	-0.000
1086.33	-0.000
1086.74	-0.000
1087.16	-0.000
1087.57	-0.000
1087.98	-0.000
1088.40	-0.000
1088.81	-0.000
1089.22	-0.000
1089.64	-0.000
1090.05	-0.000
1090.46	-0.000
1090.88	-0.000
1091.29	-0.000
1091.70	-0.000
1092.12	-0.000
1092.53	-0.000
1092.94	-0.000
1093.36	-0.000
1093.77	-0.000
1094.18	-0.000
1094.59	-0.000
1095.01	-0.000
1095.42	-0.000
1095.83	-0.000
1096.25	-0.000
1096.66	-0.000
1097.07	-0.000
1097.48	-0.000
1097.90	-0.000
1098.31	-0.000
1098.72	-0.000
1099.13	-0.000
>>>>>End Processed Spectral Data<<<<<
