SpectraSuite Data File
++++++++++++++++++++++++++++++++++++
Date: Wed May 04 16:10:03 CEST 2016
User: spectrasuite
Dark Spectrum Present: Yes
Reference Spectrum Present: Yes
Number of Sampled Component Spectra: 1
Spectrometers: HR+C0708
Integration Time (usec): 1000 (HR+C0708)
Spectra Averaged: 10 (HR+C0708)
Boxcar Smoothing: 0 (HR+C0708)
Correct for Electrical Dark: No (HR+C0708)
Strobe/Lamp Enabled: No (HR+C0708)
Correct for Detector Non-linearity: No (HR+C0708)
Correct for Stray Light: No (HR+C0708)
Number of Pixels in Processed Spectrum: 2048
>>>>>Begin Processed Spectral Data<<<<<
188.76	-0.000
189.23	-0.000
189.70	-0.000
190.17	-0.000
190.64	-0.000
191.12	-0.000
191.59	-0.000
192.06	-0.000
192.53	-0.000
193.01	-0.000
193.48	-0.000
193.95	-0.000
194.42	-0.000
194.90	-0.000
195.37	-0.000
195.84	-0.000
196.31	-0.000
196.78	-0.000
197.26	-0.000
197.73	-0.000
198.20	-0.000
198.67	-0.000
199.14	-0.000
199.62	-0.000
200.09	-0.000
200.56	-0.000
201.03	-0.000
201.50	-0.000
201.97	-0.000
202.45	-0.000
202.92	-0.000
203.39	-0.000
203.86	-0.000
204.33	-0.000
204.80	-0.000
205.28	-0.000
205.75	-0.000
206.22	-0.000
206.69	-0.000
207.16	-0.000
207.63	-0.000
208.11	-0.000
208.58	-0.000
209.05	-0.000
209.52	-0.000
209.99	-0.000
210.46	1.778
210.93	-0.000
211.41	-0.000
211.88	-0.000
212.35	-0.000
212.82	-0.000
213.29	1.266
213.76	-0.000
214.23	-0.000
214.70	-0.000
215.18	-0.000
215.65	-0.000
216.12	-0.000
216.59	-0.000
217.06	1.132
217.53	-0.000
218.00	-0.000
218.47	-0.000
218.94	-0.000
219.41	2.173
219.89	2.070
220.36	1.037
220.83	1.530
221.30	-0.000
221.77	-0.000
222.24	1.290
222.71	-0.000
223.18	-0.000
223.65	0.833
224.12	2.569
224.59	-0.000
225.06	-0.000
225.54	1.154
226.01	-0.000
226.48	-0.000
226.95	-0.000
227.42	1.958
227.89	-0.000
228.36	-0.000
228.83	-0.000
229.30	-0.000
229.77	-0.000
230.24	1.990
230.71	2.237
231.18	-0.000
231.65	-0.000
232.12	-0.000
232.59	-0.000
233.06	-0.000
233.53	-0.000
234.00	1.946
234.47	-0.000
234.94	-0.000
235.41	2.200
235.88	-0.000
236.35	-0.000
236.82	-0.000
237.29	2.342
237.76	3.038
238.23	-0.000
238.70	-0.000
239.17	4.016
239.64	-0.000
240.11	-0.000
240.58	2.440
241.05	3.739
241.52	3.772
241.99	2.697
242.46	2.813
242.93	3.094
243.40	-0.000
243.87	-0.000
244.34	2.581
244.81	3.194
245.28	-0.000
245.75	2.819
246.22	4.350
246.69	-0.000
247.16	2.916
247.63	3.596
248.10	4.202
248.57	-0.000
249.04	3.696
249.51	2.708
249.98	-0.000
250.45	3.451
250.92	3.288
251.39	2.641
251.85	2.550
252.32	2.177
252.79	2.111
253.26	1.946
253.73	1.841
254.20	1.703
254.67	1.612
255.14	1.548
255.61	1.459
256.08	1.390
256.55	1.328
257.02	1.276
257.49	1.231
257.95	1.187
258.42	1.135
258.89	1.107
259.36	1.070
259.83	1.042
260.30	1.022
260.77	0.994
261.24	0.971
261.71	0.944
262.17	0.929
262.64	0.906
263.11	0.883
263.58	0.878
264.05	0.857
264.52	0.840
264.99	0.826
265.46	0.814
265.92	0.801
266.39	0.790
266.86	0.782
267.33	0.769
267.80	0.757
268.27	0.746
268.74	0.742
269.20	0.724
269.67	0.718
270.14	0.707
270.61	0.705
271.08	0.691
271.55	0.687
272.01	0.683
272.48	0.668
272.95	0.663
273.42	0.659
273.89	0.652
274.36	0.644
274.82	0.636
275.29	0.636
275.76	0.627
276.23	0.627
276.70	0.622
277.16	0.616
277.63	0.613
278.10	0.607
278.57	0.606
279.04	0.603
279.50	0.600
279.97	0.596
280.44	0.594
280.91	0.592
281.38	0.589
281.84	0.585
282.31	0.583
282.78	0.582
283.25	0.582
283.72	0.582
284.18	0.579
284.65	0.578
285.12	0.577
285.59	0.577
286.05	0.576
286.52	0.574
286.99	0.579
287.46	0.576
287.92	0.574
288.39	0.570
288.86	0.572
289.33	0.571
289.79	0.569
290.26	0.568
290.73	0.565
291.20	0.564
291.66	0.560
292.13	0.562
292.60	0.555
293.07	0.548
293.53	0.546
294.00	0.541
294.47	0.537
294.93	0.533
295.40	0.526
295.87	0.521
296.34	0.511
296.80	0.507
297.27	0.498
297.74	0.492
298.20	0.488
298.67	0.474
299.14	0.471
299.60	0.463
300.07	0.455
300.54	0.447
301.01	0.443
301.47	0.434
301.94	0.427
302.41	0.416
302.87	0.413
303.34	0.401
303.81	0.400
304.27	0.392
304.74	0.385
305.21	0.375
305.67	0.374
306.14	0.367
306.61	0.361
307.07	0.354
307.54	0.351
308.01	0.343
308.47	0.341
308.94	0.332
309.40	0.334
309.87	0.329
310.34	0.327
310.80	0.320
311.27	0.317
311.74	0.317
312.20	0.314
312.67	0.310
313.13	0.307
313.60	0.304
314.07	0.300
314.53	0.297
315.00	0.293
315.47	0.295
315.93	0.293
316.40	0.288
316.86	0.288
317.33	0.288
317.80	0.285
318.26	0.282
318.73	0.281
319.19	0.281
319.66	0.280
320.13	0.276
320.59	0.276
321.06	0.277
321.52	0.275
321.99	0.275
322.45	0.269
322.92	0.269
323.39	0.268
323.85	0.266
324.32	0.264
324.78	0.263
325.25	0.262
325.71	0.262
326.18	0.260
326.64	0.257
327.11	0.254
327.58	0.255
328.04	0.254
328.51	0.253
328.97	0.253
329.44	0.250
329.90	0.246
330.37	0.243
330.83	0.246
331.30	0.242
331.76	0.237
332.23	0.241
332.69	0.236
333.16	0.237
333.62	0.232
334.09	0.231
334.56	0.230
335.02	0.228
335.49	0.224
335.95	0.225
336.42	0.222
336.88	0.217
337.35	0.217
337.81	0.216
338.28	0.218
338.74	0.215
339.20	0.215
339.67	0.217
340.13	0.217
340.60	0.211
341.06	0.211
341.53	0.209
341.99	0.206
342.46	0.206
342.92	0.203
343.39	0.201
343.85	0.199
344.32	0.200
344.78	0.199
345.25	0.201
345.71	0.201
346.17	0.201
346.64	0.202
347.10	0.198
347.57	0.195
348.03	0.190
348.50	0.192
348.96	0.194
349.43	0.193
349.89	0.194
350.35	0.192
350.82	0.191
351.28	0.191
351.75	0.192
352.21	0.194
352.67	0.191
353.14	0.192
353.60	0.183
354.07	0.188
354.53	0.181
355.00	0.182
355.46	0.184
355.92	0.181
356.39	0.180
356.85	0.178
357.31	0.172
357.78	0.175
358.24	0.174
358.71	0.176
359.17	0.175
359.63	0.174
360.10	0.171
360.56	0.174
361.03	0.166
361.49	0.173
361.95	0.170
362.42	0.170
362.88	0.174
363.34	0.171
363.81	0.169
364.27	0.171
364.73	0.170
365.20	0.167
365.66	0.168
366.12	0.169
366.59	0.168
367.05	0.169
367.51	0.168
367.98	0.166
368.44	0.167
368.90	0.164
369.37	0.166
369.83	0.166
370.29	0.164
370.76	0.163
371.22	0.162
371.68	0.163
372.15	0.162
372.61	0.159
373.07	0.161
373.54	0.160
374.00	0.159
374.46	0.161
374.92	0.161
375.39	0.160
375.85	0.160
376.31	0.161
376.78	0.160
377.24	0.158
377.70	0.158
378.16	0.161
378.63	0.159
379.09	0.160
379.55	0.157
380.01	0.159
380.48	0.160
380.94	0.159
381.40	0.158
381.87	0.158
382.33	0.155
382.79	0.156
383.25	0.159
383.72	0.158
384.18	0.157
384.64	0.158
385.10	0.155
385.56	0.154
386.03	0.156
386.49	0.156
386.95	0.153
387.41	0.155
387.88	0.151
388.34	0.151
388.80	0.154
389.26	0.154
389.72	0.155
390.19	0.153
390.65	0.151
391.11	0.152
391.57	0.150
392.04	0.151
392.50	0.151
392.96	0.150
393.42	0.151
393.88	0.153
394.34	0.150
394.81	0.151
395.27	0.152
395.73	0.149
396.19	0.151
396.65	0.149
397.12	0.146
397.58	0.146
398.04	0.148
398.50	0.149
398.96	0.149
399.42	0.149
399.89	0.153
400.35	0.149
400.81	0.146
401.27	0.151
401.73	0.146
402.19	0.148
402.65	0.143
403.12	0.145
403.58	0.143
404.04	0.144
404.50	0.143
404.96	0.142
405.42	0.142
405.88	0.144
406.34	0.143
406.81	0.145
407.27	0.142
407.73	0.141
408.19	0.140
408.65	0.140
409.11	0.142
409.57	0.141
410.03	0.142
410.49	0.142
410.96	0.140
411.42	0.140
411.88	0.138
412.34	0.134
412.80	0.138
413.26	0.136
413.72	0.137
414.18	0.135
414.64	0.138
415.10	0.139
415.56	0.140
416.02	0.136
416.48	0.137
416.95	0.139
417.41	0.136
417.87	0.138
418.33	0.135
418.79	0.133
419.25	0.136
419.71	0.136
420.17	0.132
420.63	0.132
421.09	0.130
421.55	0.131
422.01	0.135
422.47	0.137
422.93	0.139
423.39	0.135
423.85	0.135
424.31	0.136
424.77	0.133
425.23	0.133
425.69	0.137
426.15	0.137
426.61	0.135
427.07	0.130
427.53	0.131
427.99	0.133
428.45	0.134
428.91	0.131
429.37	0.131
429.83	0.131
430.29	0.131
430.75	0.134
431.21	0.138
431.67	0.138
432.13	0.136
432.59	0.133
433.05	0.132
433.51	0.128
433.97	0.128
434.43	0.136
434.89	0.136
435.35	0.131
435.81	0.135
436.27	0.133
436.73	0.130
437.19	0.133
437.65	0.131
438.11	0.131
438.57	0.134
439.03	0.132
439.48	0.132
439.94	0.132
440.40	0.131
440.86	0.128
441.32	0.130
441.78	0.131
442.24	0.132
442.70	0.133
443.16	0.128
443.62	0.131
444.08	0.128
444.54	0.128
444.99	0.132
445.45	0.124
445.91	0.128
446.37	0.127
446.83	0.129
447.29	0.130
447.75	0.130
448.21	0.129
448.67	0.128
449.12	0.127
449.58	0.126
450.04	0.130
450.50	0.128
450.96	0.126
451.42	0.131
451.88	0.129
452.34	0.126
452.79	0.129
453.25	0.127
453.71	0.128
454.17	0.128
454.63	0.127
455.09	0.127
455.55	0.127
456.00	0.124
456.46	0.126
456.92	0.128
457.38	0.126
457.84	0.128
458.30	0.125
458.75	0.127
459.21	0.124
459.67	0.124
460.13	0.125
460.59	0.126
461.04	0.127
461.50	0.125
461.96	0.123
462.42	0.124
462.88	0.124
463.33	0.123
463.79	0.124
464.25	0.122
464.71	0.125
465.17	0.124
465.62	0.125
466.08	0.127
466.54	0.128
467.00	0.125
467.46	0.127
467.91	0.126
468.37	0.125
468.83	0.126
469.29	0.126
469.74	0.127
470.20	0.127
470.66	0.126
471.12	0.125
471.57	0.127
472.03	0.126
472.49	0.125
472.95	0.127
473.40	0.126
473.86	0.126
474.32	0.126
474.78	0.126
475.23	0.127
475.69	0.128
476.15	0.128
476.60	0.125
477.06	0.126
477.52	0.125
477.98	0.127
478.43	0.127
478.89	0.126
479.35	0.127
479.80	0.126
480.26	0.123
480.72	0.124
481.18	0.125
481.63	0.126
482.09	0.125
482.55	0.121
483.00	0.121
483.46	0.124
483.92	0.123
484.37	0.123
484.83	0.122
485.29	0.125
485.74	0.123
486.20	0.123
486.66	0.127
487.11	0.126
487.57	0.123
488.03	0.122
488.48	0.125
488.94	0.123
489.40	0.123
489.85	0.124
490.31	0.124
490.77	0.122
491.22	0.123
491.68	0.122
492.13	0.122
492.59	0.124
493.05	0.121
493.50	0.122
493.96	0.122
494.42	0.125
494.87	0.124
495.33	0.121
495.78	0.124
496.24	0.124
496.70	0.125
497.15	0.123
497.61	0.124
498.06	0.123
498.52	0.122
498.98	0.121
499.43	0.126
499.89	0.125
500.34	0.121
500.80	0.123
501.25	0.122
501.71	0.121
502.17	0.122
502.62	0.123
503.08	0.120
503.53	0.121
503.99	0.123
504.44	0.122
504.90	0.121
505.36	0.119
505.81	0.123
506.27	0.120
506.72	0.119
507.18	0.120
507.63	0.121
508.09	0.121
508.54	0.119
509.00	0.122
509.45	0.122
509.91	0.121
510.36	0.121
510.82	0.124
511.27	0.121
511.73	0.122
512.19	0.123
512.64	0.120
513.10	0.120
513.55	0.121
514.01	0.121
514.46	0.121
514.92	0.119
515.37	0.122
515.83	0.119
516.28	0.121
516.73	0.119
517.19	0.120
517.64	0.119
518.10	0.122
518.55	0.121
519.01	0.120
519.46	0.120
519.92	0.119
520.37	0.118
520.83	0.119
521.28	0.118
521.74	0.121
522.19	0.118
522.65	0.117
523.10	0.117
523.55	0.120
524.01	0.119
524.46	0.117
524.92	0.118
525.37	0.121
525.83	0.119
526.28	0.120
526.73	0.120
527.19	0.118
527.64	0.118
528.10	0.119
528.55	0.121
529.01	0.121
529.46	0.117
529.91	0.117
530.37	0.118
530.82	0.120
531.28	0.120
531.73	0.120
532.18	0.122
532.64	0.120
533.09	0.121
533.54	0.119
534.00	0.120
534.45	0.121
534.91	0.119
535.36	0.121
535.81	0.118
536.27	0.119
536.72	0.118
537.17	0.122
537.63	0.121
538.08	0.120
538.54	0.122
538.99	0.122
539.44	0.121
539.90	0.123
540.35	0.123
540.80	0.119
541.26	0.123
541.71	0.124
542.16	0.124
542.62	0.124
543.07	0.125
543.52	0.123
543.98	0.123
544.43	0.124
544.88	0.122
545.34	0.126
545.79	0.126
546.24	0.123
546.69	0.122
547.15	0.126
547.60	0.126
548.05	0.126
548.51	0.127
548.96	0.128
549.41	0.126
549.86	0.125
550.32	0.128
550.77	0.127
551.22	0.127
551.68	0.127
552.13	0.128
552.58	0.129
553.03	0.130
553.49	0.128
553.94	0.130
554.39	0.131
554.84	0.132
555.30	0.132
555.75	0.131
556.20	0.132
556.65	0.133
557.11	0.131
557.56	0.134
558.01	0.135
558.46	0.134
558.92	0.137
559.37	0.136
559.82	0.136
560.27	0.135
560.72	0.135
561.18	0.136
561.63	0.138
562.08	0.140
562.53	0.138
562.99	0.139
563.44	0.140
563.89	0.141
564.34	0.142
564.79	0.142
565.25	0.142
565.70	0.141
566.15	0.142
566.60	0.143
567.05	0.144
567.50	0.144
567.96	0.146
568.41	0.145
568.86	0.147
569.31	0.147
569.76	0.147
570.21	0.149
570.67	0.147
571.12	0.148
571.57	0.149
572.02	0.151
572.47	0.150
572.92	0.151
573.37	0.155
573.83	0.154
574.28	0.156
574.73	0.153
575.18	0.155
575.63	0.157
576.08	0.154
576.53	0.156
576.98	0.159
577.44	0.162
577.89	0.158
578.34	0.162
578.79	0.162
579.24	0.162
579.69	0.162
580.14	0.164
580.59	0.166
581.04	0.167
581.49	0.167
581.95	0.167
582.40	0.172
582.85	0.172
583.30	0.173
583.75	0.174
584.20	0.173
584.65	0.178
585.10	0.179
585.55	0.178
586.00	0.179
586.45	0.181
586.90	0.183
587.35	0.184
587.80	0.185
588.25	0.186
588.71	0.188
589.16	0.192
589.61	0.191
590.06	0.193
590.51	0.195
590.96	0.196
591.41	0.198
591.86	0.200
592.31	0.202
592.76	0.203
593.21	0.203
593.66	0.207
594.11	0.208
594.56	0.210
595.01	0.212
595.46	0.211
595.91	0.214
596.36	0.216
596.81	0.218
597.26	0.219
597.71	0.220
598.16	0.225
598.61	0.226
599.06	0.225
599.51	0.227
599.96	0.229
600.41	0.231
600.86	0.233
601.31	0.234
601.76	0.240
602.21	0.237
602.65	0.242
603.10	0.240
603.55	0.243
604.00	0.246
604.45	0.248
604.90	0.247
605.35	0.253
605.80	0.251
606.25	0.254
606.70	0.256
607.15	0.256
607.60	0.258
608.05	0.258
608.50	0.260
608.95	0.260
609.39	0.263
609.84	0.263
610.29	0.264
610.74	0.264
611.19	0.267
611.64	0.267
612.09	0.268
612.54	0.268
612.99	0.268
613.44	0.270
613.88	0.271
614.33	0.272
614.78	0.274
615.23	0.275
615.68	0.274
616.13	0.274
616.58	0.277
617.03	0.275
617.47	0.277
617.92	0.278
618.37	0.280
618.82	0.280
619.27	0.277
619.72	0.282
620.17	0.280
620.61	0.281
621.06	0.283
621.51	0.281
621.96	0.280
622.41	0.283
622.86	0.284
623.30	0.283
623.75	0.288
624.20	0.287
624.65	0.288
625.10	0.286
625.54	0.286
625.99	0.288
626.44	0.292
626.89	0.292
627.34	0.293
627.78	0.295
628.23	0.295
628.68	0.295
629.13	0.296
629.58	0.297
630.02	0.300
630.47	0.301
630.92	0.302
631.37	0.304
631.81	0.306
632.26	0.306
632.71	0.307
633.16	0.311
633.61	0.314
634.05	0.313
634.50	0.313
634.95	0.317
635.40	0.316
635.84	0.321
636.29	0.321
636.74	0.325
637.18	0.327
637.63	0.328
638.08	0.331
638.53	0.331
638.97	0.335
639.42	0.336
639.87	0.339
640.32	0.342
640.76	0.342
641.21	0.347
641.66	0.352
642.10	0.353
642.55	0.355
643.00	0.359
643.44	0.359
643.89	0.363
644.34	0.367
644.79	0.371
645.23	0.370
645.68	0.377
646.13	0.377
646.57	0.382
647.02	0.383
647.47	0.387
647.91	0.389
648.36	0.391
648.81	0.394
649.25	0.395
649.70	0.398
650.15	0.404
650.59	0.406
651.04	0.410
651.48	0.409
651.93	0.413
652.38	0.414
652.82	0.419
653.27	0.415
653.72	0.424
654.16	0.422
654.61	0.426
655.06	0.428
655.50	0.429
655.95	0.428
656.39	0.429
656.84	0.439
657.29	0.441
657.73	0.441
658.18	0.439
658.62	0.442
659.07	0.445
659.52	0.446
659.96	0.445
660.41	0.449
660.85	0.450
661.30	0.452
661.74	0.451
662.19	0.456
662.64	0.451
663.08	0.452
663.53	0.453
663.97	0.454
664.42	0.451
664.86	0.453
665.31	0.453
665.75	0.454
666.20	0.451
666.65	0.453
667.09	0.451
667.54	0.449
667.98	0.446
668.43	0.446
668.87	0.446
669.32	0.442
669.76	0.439
670.21	0.436
670.65	0.433
671.10	0.428
671.54	0.426
671.99	0.423
672.43	0.416
672.88	0.412
673.32	0.409
673.77	0.402
674.21	0.398
674.66	0.391
675.10	0.387
675.55	0.378
675.99	0.374
676.44	0.365
676.88	0.362
677.33	0.354
677.77	0.350
678.22	0.341
678.66	0.335
679.11	0.329
679.55	0.319
679.99	0.314
680.44	0.305
680.88	0.298
681.33	0.292
681.77	0.286
682.22	0.275
682.66	0.271
683.11	0.262
683.55	0.257
683.99	0.251
684.44	0.243
684.88	0.238
685.33	0.230
685.77	0.224
686.21	0.221
686.66	0.215
687.10	0.206
687.55	0.203
687.99	0.197
688.44	0.191
688.88	0.186
689.32	0.183
689.77	0.178
690.21	0.173
690.65	0.169
691.10	0.163
691.54	0.160
691.99	0.157
692.43	0.153
692.87	0.150
693.32	0.147
693.76	0.143
694.20	0.141
694.65	0.138
695.09	0.135
695.53	0.132
695.98	0.131
696.42	0.128
696.86	0.126
697.31	0.122
697.75	0.120
698.19	0.119
698.64	0.117
699.08	0.115
699.52	0.115
699.97	0.111
700.41	0.110
700.85	0.110
701.30	0.106
701.74	0.106
702.18	0.105
702.63	0.102
703.07	0.100
703.51	0.101
703.96	0.101
704.40	0.099
704.84	0.098
705.28	0.097
705.73	0.096
706.17	0.095
706.61	0.097
707.06	0.093
707.50	0.095
707.94	0.094
708.38	0.092
708.83	0.094
709.27	0.093
709.71	0.091
710.15	0.090
710.60	0.092
711.04	0.089
711.48	0.091
711.92	0.089
712.37	0.088
712.81	0.089
713.25	0.089
713.69	0.088
714.13	0.088
714.58	0.087
715.02	0.087
715.46	0.086
715.90	0.087
716.35	0.085
716.79	0.087
717.23	0.088
717.67	0.086
718.11	0.085
718.56	0.085
719.00	0.086
719.44	0.085
719.88	0.087
720.32	0.087
720.76	0.083
721.21	0.085
721.65	0.085
722.09	0.084
722.53	0.086
722.97	0.086
723.41	0.084
723.86	0.086
724.30	0.086
724.74	0.089
725.18	0.085
725.62	0.085
726.06	0.086
726.50	0.088
726.95	0.087
727.39	0.087
727.83	0.084
728.27	0.085
728.71	0.086
729.15	0.084
729.59	0.084
730.03	0.085
730.48	0.085
730.92	0.088
731.36	0.085
731.80	0.085
732.24	0.089
732.68	0.086
733.12	0.087
733.56	0.089
734.00	0.089
734.44	0.090
734.89	0.088
735.33	0.084
735.77	0.088
736.21	0.088
736.65	0.088
737.09	0.091
737.53	0.088
737.97	0.087
738.41	0.087
738.85	0.089
739.29	0.086
739.73	0.089
740.17	0.089
740.61	0.089
741.05	0.092
741.49	0.087
741.93	0.087
742.37	0.088
742.81	0.089
743.26	0.088
743.70	0.087
744.14	0.089
744.58	0.087
745.02	0.086
745.46	0.086
745.90	0.088
746.34	0.088
746.78	0.089
747.22	0.088
747.66	0.087
748.10	0.087
748.54	0.089
748.98	0.090
749.42	0.088
749.86	0.088
750.29	0.088
750.73	0.089
751.17	0.088
751.61	0.090
752.05	0.089
752.49	0.090
752.93	0.088
753.37	0.088
753.81	0.087
754.25	0.087
754.69	0.090
755.13	0.091
755.57	0.086
756.01	0.086
756.45	0.086
756.89	0.087
757.33	0.087
757.77	0.087
758.21	0.087
758.64	0.084
759.08	0.084
759.52	0.085
759.96	0.086
760.40	0.086
760.84	0.085
761.28	0.084
761.72	0.087
762.16	0.084
762.60	0.085
763.03	0.087
763.47	0.086
763.91	0.086
764.35	0.086
764.79	0.084
765.23	0.088
765.67	0.084
766.11	0.087
766.54	0.085
766.98	0.082
767.42	0.083
767.86	0.088
768.30	0.086
768.74	0.086
769.17	0.086
769.61	0.086
770.05	0.087
770.49	0.087
770.93	0.085
771.37	0.087
771.80	0.084
772.24	0.084
772.68	0.086
773.12	0.084
773.56	0.086
774.00	0.085
774.43	0.086
774.87	0.085
775.31	0.086
775.75	0.083
776.19	0.085
776.62	0.085
777.06	0.084
777.50	0.085
777.94	0.084
778.37	0.088
778.81	0.085
779.25	0.084
779.69	0.085
780.13	0.085
780.56	0.082
781.00	0.082
781.44	0.085
781.88	0.087
782.31	0.083
782.75	0.081
783.19	0.085
783.63	0.084
784.06	0.085
784.50	0.085
784.94	0.088
785.37	0.082
785.81	0.084
786.25	0.084
786.69	0.084
787.12	0.088
787.56	0.086
788.00	0.085
788.43	0.085
788.87	0.085
789.31	0.085
789.75	0.084
790.18	0.085
790.62	0.087
791.06	0.086
791.49	0.086
791.93	0.086
792.37	0.083
792.80	0.086
793.24	0.087
793.68	0.087
794.11	0.087
794.55	0.089
794.99	0.085
795.42	0.087
795.86	0.089
796.30	0.084
796.73	0.085
797.17	0.085
797.61	0.087
798.04	0.084
798.48	0.086
798.91	0.087
799.35	0.087
799.79	0.082
800.22	0.086
800.66	0.082
801.10	0.087
801.53	0.092
801.97	0.083
802.40	0.080
802.84	0.087
803.28	0.084
803.71	0.086
804.15	0.088
804.58	0.087
805.02	0.086
805.46	0.085
805.89	0.083
806.33	0.089
806.76	0.084
807.20	0.084
807.63	0.083
808.07	0.082
808.51	0.089
808.94	0.086
809.38	0.085
809.81	0.087
810.25	0.083
810.68	0.084
811.12	0.084
811.55	0.087
811.99	0.085
812.42	0.084
812.86	0.086
813.29	0.086
813.73	0.088
814.17	0.079
814.60	0.083
815.04	0.083
815.47	0.087
815.91	0.085
816.34	0.088
816.78	0.090
817.21	0.087
817.65	0.087
818.08	0.085
818.52	0.086
818.95	0.086
819.39	0.092
819.82	0.086
820.25	0.083
820.69	0.089
821.12	0.091
821.56	0.086
821.99	0.085
822.43	0.087
822.86	0.089
823.30	0.086
823.73	0.087
824.17	0.089
824.60	0.085
825.04	0.087
825.47	0.086
825.90	0.085
826.34	0.089
826.77	0.088
827.21	0.089
827.64	0.087
828.08	0.089
828.51	0.090
828.94	0.087
829.38	0.092
829.81	0.089
830.25	0.097
830.68	0.092
831.11	0.092
831.55	0.096
831.98	0.097
832.42	0.089
832.85	0.094
833.28	0.093
833.72	0.095
834.15	0.099
834.58	0.089
835.02	0.091
835.45	0.096
835.88	0.092
836.32	0.095
836.75	0.093
837.19	0.098
837.62	0.092
838.05	0.098
838.49	0.089
838.92	0.094
839.35	0.092
839.79	0.093
840.22	0.090
840.65	0.095
841.09	0.096
841.52	0.096
841.95	0.093
842.39	0.095
842.82	0.099
843.25	0.099
843.68	0.095
844.12	0.096
844.55	0.095
844.98	0.098
845.42	0.092
845.85	0.096
846.28	0.097
846.71	0.089
847.15	0.094
847.58	0.103
848.01	0.095
848.45	0.092
848.88	0.093
849.31	0.095
849.74	0.095
850.18	0.095
850.61	0.099
851.04	0.097
851.47	0.093
851.91	0.096
852.34	0.100
852.77	0.093
853.20	0.099
853.64	0.098
854.07	0.098
854.50	0.093
854.93	0.092
855.36	0.098
855.80	0.100
856.23	0.095
856.66	0.099
857.09	0.102
857.52	0.100
857.96	0.097
858.39	0.101
858.82	0.096
859.25	0.106
859.68	0.098
860.12	0.100
860.55	0.099
860.98	0.098
861.41	0.101
861.84	0.102
862.27	0.099
862.71	0.103
863.14	0.099
863.57	0.104
864.00	0.099
864.43	0.095
864.86	0.106
865.30	0.103
865.73	0.094
866.16	0.102
866.59	0.106
867.02	0.103
867.45	0.103
867.88	0.102
868.31	0.101
868.75	0.098
869.18	0.101
869.61	0.104
870.04	0.105
870.47	0.101
870.90	0.107
871.33	0.101
871.76	0.101
872.19	0.099
872.62	0.108
873.06	0.105
873.49	0.102
873.92	0.110
874.35	0.102
874.78	0.110
875.21	0.101
875.64	0.108
876.07	0.113
876.50	0.102
876.93	0.102
877.36	0.106
877.79	0.105
878.22	0.099
878.65	0.105
879.08	0.110
879.51	0.103
879.94	0.103
880.37	0.101
880.80	0.102
881.23	0.104
881.67	0.103
882.10	0.107
882.53	0.103
882.96	0.109
883.39	0.116
883.82	0.107
884.25	0.113
884.68	0.106
885.11	0.106
885.54	0.109
885.97	0.104
886.39	0.103
886.82	0.106
887.25	0.110
887.68	0.106
888.11	0.103
888.54	0.104
888.97	0.104
889.40	0.110
889.83	0.106
890.26	0.111
890.69	0.104
891.12	0.107
891.55	0.109
891.98	0.109
892.41	0.110
892.84	0.110
893.27	0.110
893.70	0.105
894.13	0.107
894.56	0.109
894.98	0.109
895.41	0.109
895.84	0.115
896.27	0.107
896.70	0.112
897.13	0.104
897.56	0.111
897.99	0.107
898.42	0.109
898.85	0.110
899.27	0.111
899.70	0.116
900.13	0.113
900.56	0.114
900.99	0.107
901.42	0.106
901.85	0.109
902.28	0.113
902.70	0.110
903.13	0.111
903.56	0.114
903.99	0.108
904.42	0.111
904.85	0.109
905.27	0.110
905.70	0.113
906.13	0.107
906.56	0.110
906.99	0.112
907.42	0.108
907.84	0.112
908.27	0.114
908.70	0.108
909.13	0.108
909.56	0.110
909.98	0.109
910.41	0.106
910.84	0.111
911.27	0.107
911.70	0.111
912.12	0.109
912.55	0.107
912.98	0.108
913.41	0.109
913.84	0.105
914.26	0.106
914.69	0.103
915.12	0.110
915.55	0.104
915.97	0.108
916.40	0.111
916.83	0.109
917.26	0.108
917.68	0.111
918.11	0.111
918.54	0.111
918.97	0.107
919.39	0.110
919.82	0.112
920.25	0.109
920.67	0.109
921.10	0.112
921.53	0.113
921.96	0.111
922.38	0.112
922.81	0.111
923.24	0.114
923.66	0.113
924.09	0.112
924.52	0.119
924.94	0.115
925.37	0.118
925.80	0.116
926.22	0.116
926.65	0.119
927.08	0.118
927.50	0.122
927.93	0.122
928.36	0.122
928.78	0.124
929.21	0.123
929.64	0.125
930.06	0.126
930.49	0.129
930.92	0.124
931.34	0.129
931.77	0.128
932.20	0.130
932.62	0.123
933.05	0.126
933.47	0.127
933.90	0.130
934.33	0.137
934.75	0.131
935.18	0.137
935.61	0.136
936.03	0.138
936.46	0.143
936.88	0.145
937.31	0.144
937.73	0.153
938.16	0.147
938.59	0.148
939.01	0.159
939.44	0.159
939.86	0.151
940.29	0.156
940.71	0.162
941.14	0.160
941.57	0.167
941.99	0.168
942.42	0.170
942.84	0.171
943.27	0.168
943.69	0.174
944.12	0.175
944.54	0.178
944.97	0.181
945.39	0.181
945.82	0.180
946.24	0.183
946.67	0.191
947.09	0.197
947.52	0.188
947.94	0.192
948.37	0.190
948.79	0.200
949.22	0.198
949.64	0.207
950.07	0.200
950.49	0.205
950.92	0.205
951.34	0.210
951.77	0.214
952.19	0.212
952.62	0.214
953.04	0.222
953.47	0.226
953.89	0.227
954.32	0.224
954.74	0.235
955.17	0.231
955.59	0.235
956.01	0.242
956.44	0.246
956.86	0.244
957.29	0.242
957.71	0.252
958.14	0.253
958.56	0.255
958.98	0.261
959.41	0.259
959.83	0.265
960.26	0.259
960.68	0.264
961.10	0.266
961.53	0.264
961.95	0.270
962.38	0.274
962.80	0.273
963.22	0.269
963.65	0.276
964.07	0.276
964.50	0.272
964.92	0.270
965.34	0.268
965.77	0.273
966.19	0.267
966.61	0.276
967.04	0.276
967.46	0.276
967.88	0.276
968.31	0.279
968.73	0.275
969.15	0.276
969.58	0.282
970.00	0.281
970.42	0.282
970.85	0.278
971.27	0.280
971.69	0.275
972.12	0.280
972.54	0.280
972.96	0.282
973.39	0.283
973.81	0.280
974.23	0.290
974.65	0.284
975.08	0.284
975.50	0.281
975.92	0.280
976.35	0.287
976.77	0.282
977.19	0.280
977.61	0.279
978.04	0.281
978.46	0.276
978.88	0.281
979.30	0.287
979.73	0.285
980.15	0.283
980.57	0.281
980.99	0.290
981.42	0.278
981.84	0.281
982.26	0.290
982.68	0.284
983.11	0.281
983.53	0.289
983.95	0.280
984.37	0.275
984.79	0.281
985.22	0.283
985.64	0.282
986.06	0.273
986.48	0.277
986.90	0.281
987.33	0.277
987.75	0.273
988.17	0.280
988.59	0.281
989.01	0.266
989.43	0.277
989.86	0.277
990.28	0.270
990.70	0.271
991.12	0.271
991.54	0.278
991.96	0.272
992.39	0.261
992.81	0.272
993.23	0.270
993.65	0.261
994.07	0.266
994.49	0.268
994.91	0.266
995.34	0.267
995.76	0.266
996.18	0.271
996.60	0.252
997.02	0.259
997.44	0.274
997.86	0.258
998.28	0.251
998.70	0.261
999.12	0.258
999.55	0.262
999.97	0.264
1000.39	0.267
1000.81	0.259
1001.23	0.253
1001.65	0.249
1002.07	0.264
1002.49	0.253
1002.91	0.249
1003.33	0.251
1003.75	0.254
1004.17	0.254
1004.59	0.255
1005.01	0.255
1005.43	0.244
1005.85	0.249
1006.28	0.250
1006.70	0.248
1007.12	0.244
1007.54	0.240
1007.96	0.250
1008.38	0.245
1008.80	0.241
1009.22	0.253
1009.64	0.246
1010.06	0.236
1010.48	0.238
1010.90	0.242
1011.32	0.237
1011.74	0.239
1012.16	0.233
1012.58	0.240
1013.00	0.229
1013.42	0.230
1013.84	0.233
1014.26	0.230
1014.67	0.228
1015.09	0.232
1015.51	0.232
1015.93	0.240
1016.35	0.222
1016.77	0.230
1017.19	0.232
1017.61	0.221
1018.03	0.217
1018.45	0.221
1018.87	0.226
1019.29	0.214
1019.71	0.213
1020.13	0.231
1020.55	0.229
1020.97	0.216
1021.38	0.206
1021.80	0.213
1022.22	0.214
1022.64	0.210
1023.06	0.222
1023.48	0.219
1023.90	0.202
1024.32	0.207
1024.74	0.215
1025.15	0.214
1025.57	0.221
1025.99	0.224
1026.41	0.205
1026.83	0.210
1027.25	0.201
1027.67	0.216
1028.08	0.209
1028.50	0.205
1028.92	0.213
1029.34	0.207
1029.76	0.214
1030.18	0.200
1030.60	0.216
1031.01	0.211
1031.43	0.187
1031.85	0.208
1032.27	0.220
1032.69	0.194
1033.10	0.198
1033.52	0.194
1033.94	0.209
1034.36	0.201
1034.78	0.197
1035.19	0.205
1035.61	0.201
1036.03	0.191
1036.45	0.194
1036.87	0.199
1037.28	0.192
1037.70	0.180
1038.12	0.202
1038.54	0.189
1038.95	0.198
1039.37	0.190
1039.79	0.197
1040.21	0.195
1040.62	0.170
1041.04	0.201
1041.46	0.206
1041.88	0.211
1042.29	0.202
1042.71	0.209
1043.13	0.200
1043.55	0.186
1043.96	0.200
1044.38	0.196
1044.80	0.204
1045.21	0.204
1045.63	0.214
1046.05	0.203
1046.47	0.184
1046.88	0.182
1047.30	0.200
1047.72	0.193
1048.13	0.167
1048.55	0.216
1048.97	0.210
1049.38	0.192
1049.80	0.163
1050.22	0.196
1050.63	0.221
1051.05	0.201
1051.47	0.225
1051.88	0.187
1052.30	0.202
1052.72	0.179
1053.13	0.236
1053.55	0.229
1053.97	0.211
1054.38	0.188
1054.80	0.218
1055.21	0.197
1055.63	0.204
1056.05	0.205
1056.46	0.233
1056.88	0.237
1057.29	0.212
1057.71	0.260
1058.13	0.221
1058.54	0.185
1058.96	0.233
1059.37	0.272
1059.79	0.233
1060.21	0.229
1060.62	0.284
1061.04	0.291
1061.45	0.256
1061.87	0.266
1062.28	0.311
1062.70	0.311
1063.12	0.327
1063.53	0.319
1063.95	0.349
1064.36	0.249
1064.78	0.299
1065.19	0.353
1065.61	0.389
1066.02	0.321
1066.44	0.295
1066.85	0.348
1067.27	0.363
1067.68	0.293
1068.10	0.337
1068.51	0.436
1068.93	0.267
1069.35	0.478
1069.76	0.667
1070.17	0.501
1070.59	0.267
1071.00	0.486
1071.42	0.408
1071.83	0.449
1072.25	0.505
1072.66	0.831
1073.08	0.799
1073.49	0.648
1073.91	0.469
1074.32	1.040
1074.74	0.669
1075.15	1.096
1075.57	1.274
1075.98	1.247
1076.40	1.073
1076.81	1.318
1077.22	-0.000
1077.64	-0.000
1078.05	1.197
1078.47	-0.000
1078.88	-0.000
1079.30	0.767
1079.71	1.214
1080.12	-0.000
1080.54	-0.000
1080.95	-0.000
1081.37	-0.000
1081.78	-0.000
1082.19	-0.000
1082.61	-0.000
1083.02	-0.000
1083.44	-0.000
1083.85	-0.000
1084.26	-0.000
1084.68	-0.000
1085.09	-0.000
1085.50	-0.000
1085.92	-0.000
1086.33	-0.000
1086.74	-0.000
1087.16	-0.000
1087.57	-0.000
1087.98	-0.000
1088.40	-0.000
1088.81	-0.000
1089.22	-0.000
1089.64	-0.000
1090.05	-0.000
1090.46	-0.000
1090.88	-0.000
1091.29	-0.000
1091.70	-0.000
1092.12	-0.000
1092.53	-0.000
1092.94	-0.000
1093.36	-0.000
1093.77	-0.000
1094.18	-0.000
1094.59	-0.000
1095.01	-0.000
1095.42	-0.000
1095.83	-0.000
1096.25	-0.000
1096.66	-0.000
1097.07	-0.000
1097.48	-0.000
1097.90	-0.000
1098.31	-0.000
1098.72	-0.000
1099.13	-0.000
>>>>>End Processed Spectral Data<<<<<
