SpectraSuite Data File
++++++++++++++++++++++++++++++++++++
Date: Wed May 04 15:26:43 CEST 2016
User: spectrasuite
Dark Spectrum Present: Yes
Reference Spectrum Present: Yes
Number of Sampled Component Spectra: 1
Spectrometers: HR+C0708
Integration Time (usec): 1000 (HR+C0708)
Spectra Averaged: 10 (HR+C0708)
Boxcar Smoothing: 0 (HR+C0708)
Correct for Electrical Dark: No (HR+C0708)
Strobe/Lamp Enabled: No (HR+C0708)
Correct for Detector Non-linearity: No (HR+C0708)
Correct for Stray Light: No (HR+C0708)
Number of Pixels in Processed Spectrum: 2048
>>>>>Begin Processed Spectral Data<<<<<
188.76	-0.000
189.23	-0.000
189.70	-0.000
190.17	-0.000
190.64	-0.000
191.12	-0.000
191.59	-0.000
192.06	-0.000
192.53	-0.000
193.01	-0.000
193.48	-0.000
193.95	-0.000
194.42	-0.000
194.90	-0.000
195.37	-0.000
195.84	-0.000
196.31	-0.000
196.78	-0.000
197.26	-0.000
197.73	-0.000
198.20	-0.000
198.67	-0.000
199.14	-0.000
199.62	-0.000
200.09	-0.000
200.56	-0.000
201.03	-0.000
201.50	1.184
201.97	1.071
202.45	-0.000
202.92	-0.000
203.39	-0.000
203.86	-0.000
204.33	-0.000
204.80	1.724
205.28	1.420
205.75	-0.000
206.22	-0.000
206.69	1.049
207.16	1.028
207.63	-0.000
208.11	-0.000
208.58	0.855
209.05	-0.000
209.52	-0.000
209.99	1.109
210.46	0.918
210.93	-0.000
211.41	1.598
211.88	1.184
212.35	-0.000
212.82	-0.000
213.29	0.917
213.76	-0.000
214.23	-0.000
214.70	-0.000
215.18	0.868
215.65	0.713
216.12	1.352
216.59	1.170
217.06	0.652
217.53	0.984
218.00	1.002
218.47	0.898
218.94	-0.000
219.41	1.433
219.89	1.427
220.36	0.724
220.83	1.115
221.30	-0.000
221.77	-0.000
222.24	1.044
222.71	1.603
223.18	1.514
223.65	0.820
224.12	1.057
224.59	0.989
225.06	-0.000
225.54	0.978
226.01	1.767
226.48	1.852
226.95	-0.000
227.42	1.499
227.89	1.605
228.36	1.529
228.83	1.402
229.30	2.117
229.77	-0.000
230.24	1.356
230.71	1.597
231.18	1.670
231.65	2.389
232.12	-0.000
232.59	-0.000
233.06	-0.000
233.53	-0.000
234.00	2.031
234.47	-0.000
234.94	-0.000
235.41	2.030
235.88	2.033
236.35	2.540
236.82	3.133
237.29	2.198
237.76	2.490
238.23	-0.000
238.70	3.437
239.17	2.442
239.64	-0.000
240.11	3.341
240.58	2.178
241.05	2.429
241.52	3.192
241.99	2.494
242.46	2.521
242.93	2.586
243.40	3.713
243.87	2.611
244.34	2.640
244.81	3.146
245.28	3.483
245.75	2.528
246.22	2.873
246.69	-0.000
247.16	2.449
247.63	2.619
248.10	2.735
248.57	-0.000
249.04	3.073
249.51	2.599
249.98	-0.000
250.45	2.757
250.92	2.518
251.39	2.391
251.85	2.331
252.32	2.147
252.79	2.047
253.26	1.919
253.73	1.804
254.20	1.687
254.67	1.572
255.14	1.529
255.61	1.457
256.08	1.380
256.55	1.323
257.02	1.276
257.49	1.210
257.95	1.169
258.42	1.126
258.89	1.102
259.36	1.074
259.83	1.038
260.30	1.020
260.77	0.990
261.24	0.969
261.71	0.952
262.17	0.926
262.64	0.906
263.11	0.894
263.58	0.872
264.05	0.862
264.52	0.842
264.99	0.835
265.46	0.823
265.92	0.803
266.39	0.790
266.86	0.782
267.33	0.769
267.80	0.763
268.27	0.753
268.74	0.745
269.20	0.731
269.67	0.721
270.14	0.717
270.61	0.704
271.08	0.699
271.55	0.691
272.01	0.689
272.48	0.677
272.95	0.668
273.42	0.665
273.89	0.661
274.36	0.653
274.82	0.648
275.29	0.644
275.76	0.633
276.23	0.631
276.70	0.627
277.16	0.626
277.63	0.618
278.10	0.619
278.57	0.616
279.04	0.609
279.50	0.610
279.97	0.600
280.44	0.609
280.91	0.604
281.38	0.601
281.84	0.595
282.31	0.597
282.78	0.597
283.25	0.595
283.72	0.595
284.18	0.591
284.65	0.591
285.12	0.588
285.59	0.588
286.05	0.592
286.52	0.590
286.99	0.593
287.46	0.593
287.92	0.589
288.39	0.587
288.86	0.589
289.33	0.587
289.79	0.587
290.26	0.583
290.73	0.583
291.20	0.583
291.66	0.581
292.13	0.582
292.60	0.574
293.07	0.568
293.53	0.568
294.00	0.562
294.47	0.558
294.93	0.550
295.40	0.544
295.87	0.539
296.34	0.533
296.80	0.525
297.27	0.515
297.74	0.507
298.20	0.504
298.67	0.494
299.14	0.487
299.60	0.479
300.07	0.469
300.54	0.462
301.01	0.455
301.47	0.450
301.94	0.441
302.41	0.433
302.87	0.422
303.34	0.418
303.81	0.413
304.27	0.407
304.74	0.399
305.21	0.391
305.67	0.387
306.14	0.378
306.61	0.373
307.07	0.366
307.54	0.363
308.01	0.356
308.47	0.349
308.94	0.348
309.40	0.344
309.87	0.342
310.34	0.337
310.80	0.332
311.27	0.328
311.74	0.325
312.20	0.324
312.67	0.320
313.13	0.315
313.60	0.313
314.07	0.310
314.53	0.307
315.00	0.303
315.47	0.304
315.93	0.305
316.40	0.301
316.86	0.296
317.33	0.297
317.80	0.297
318.26	0.294
318.73	0.296
319.19	0.292
319.66	0.288
320.13	0.288
320.59	0.288
321.06	0.288
321.52	0.283
321.99	0.284
322.45	0.282
322.92	0.280
323.39	0.279
323.85	0.279
324.32	0.277
324.78	0.274
325.25	0.270
325.71	0.275
326.18	0.269
326.64	0.269
327.11	0.266
327.58	0.268
328.04	0.268
328.51	0.264
328.97	0.262
329.44	0.262
329.90	0.258
330.37	0.255
330.83	0.256
331.30	0.256
331.76	0.250
332.23	0.252
332.69	0.250
333.16	0.248
333.62	0.243
334.09	0.243
334.56	0.242
335.02	0.236
335.49	0.236
335.95	0.233
336.42	0.235
336.88	0.231
337.35	0.230
337.81	0.227
338.28	0.229
338.74	0.228
339.20	0.228
339.67	0.227
340.13	0.226
340.60	0.225
341.06	0.222
341.53	0.218
341.99	0.217
342.46	0.216
342.92	0.213
343.39	0.212
343.85	0.211
344.32	0.209
344.78	0.210
345.25	0.213
345.71	0.213
346.17	0.213
346.64	0.214
347.10	0.209
347.57	0.206
348.03	0.204
348.50	0.203
348.96	0.203
349.43	0.204
349.89	0.204
350.35	0.202
350.82	0.204
351.28	0.201
351.75	0.204
352.21	0.201
352.67	0.197
353.14	0.198
353.60	0.198
354.07	0.196
354.53	0.196
355.00	0.195
355.46	0.190
355.92	0.192
356.39	0.192
356.85	0.186
357.31	0.187
357.78	0.185
358.24	0.188
358.71	0.186
359.17	0.186
359.63	0.184
360.10	0.186
360.56	0.183
361.03	0.181
361.49	0.184
361.95	0.183
362.42	0.182
362.88	0.183
363.34	0.183
363.81	0.180
364.27	0.182
364.73	0.179
365.20	0.176
365.66	0.178
366.12	0.180
366.59	0.180
367.05	0.176
367.51	0.176
367.98	0.178
368.44	0.177
368.90	0.175
369.37	0.175
369.83	0.176
370.29	0.175
370.76	0.176
371.22	0.173
371.68	0.173
372.15	0.172
372.61	0.170
373.07	0.172
373.54	0.169
374.00	0.171
374.46	0.174
374.92	0.171
375.39	0.170
375.85	0.168
376.31	0.169
376.78	0.169
377.24	0.169
377.70	0.169
378.16	0.167
378.63	0.170
379.09	0.169
379.55	0.168
380.01	0.170
380.48	0.170
380.94	0.168
381.40	0.168
381.87	0.168
382.33	0.168
382.79	0.165
383.25	0.167
383.72	0.167
384.18	0.166
384.64	0.166
385.10	0.165
385.56	0.167
386.03	0.165
386.49	0.164
386.95	0.165
387.41	0.167
387.88	0.162
388.34	0.162
388.80	0.164
389.26	0.163
389.72	0.164
390.19	0.160
390.65	0.160
391.11	0.161
391.57	0.160
392.04	0.159
392.50	0.161
392.96	0.162
393.42	0.162
393.88	0.163
394.34	0.158
394.81	0.161
395.27	0.159
395.73	0.158
396.19	0.158
396.65	0.159
397.12	0.154
397.58	0.159
398.04	0.157
398.50	0.159
398.96	0.159
399.42	0.157
399.89	0.159
400.35	0.160
400.81	0.155
401.27	0.157
401.73	0.155
402.19	0.158
402.65	0.150
403.12	0.154
403.58	0.155
404.04	0.150
404.50	0.152
404.96	0.151
405.42	0.151
405.88	0.153
406.34	0.154
406.81	0.152
407.27	0.151
407.73	0.150
408.19	0.151
408.65	0.148
409.11	0.150
409.57	0.148
410.03	0.151
410.49	0.151
410.96	0.147
411.42	0.150
411.88	0.145
412.34	0.142
412.80	0.149
413.26	0.146
413.72	0.146
414.18	0.144
414.64	0.146
415.10	0.145
415.56	0.148
416.02	0.144
416.48	0.146
416.95	0.146
417.41	0.144
417.87	0.146
418.33	0.143
418.79	0.142
419.25	0.145
419.71	0.143
420.17	0.141
420.63	0.141
421.09	0.140
421.55	0.142
422.01	0.142
422.47	0.145
422.93	0.149
423.39	0.143
423.85	0.142
424.31	0.142
424.77	0.142
425.23	0.141
425.69	0.143
426.15	0.144
426.61	0.143
427.07	0.140
427.53	0.138
427.99	0.142
428.45	0.143
428.91	0.139
429.37	0.138
429.83	0.136
430.29	0.140
430.75	0.144
431.21	0.145
431.67	0.143
432.13	0.144
432.59	0.139
433.05	0.139
433.51	0.138
433.97	0.136
434.43	0.145
434.89	0.144
435.35	0.140
435.81	0.142
436.27	0.140
436.73	0.141
437.19	0.140
437.65	0.137
438.11	0.141
438.57	0.140
439.03	0.137
439.48	0.139
439.94	0.140
440.40	0.137
440.86	0.135
441.32	0.137
441.78	0.135
442.24	0.138
442.70	0.139
443.16	0.135
443.62	0.139
444.08	0.139
444.54	0.139
444.99	0.137
445.45	0.136
445.91	0.135
446.37	0.135
446.83	0.137
447.29	0.136
447.75	0.135
448.21	0.139
448.67	0.137
449.12	0.136
449.58	0.137
450.04	0.138
450.50	0.139
450.96	0.135
451.42	0.138
451.88	0.138
452.34	0.133
452.79	0.136
453.25	0.137
453.71	0.137
454.17	0.132
454.63	0.135
455.09	0.135
455.55	0.136
456.00	0.131
456.46	0.135
456.92	0.135
457.38	0.134
457.84	0.135
458.30	0.134
458.75	0.132
459.21	0.130
459.67	0.132
460.13	0.133
460.59	0.133
461.04	0.135
461.50	0.133
461.96	0.135
462.42	0.133
462.88	0.132
463.33	0.133
463.79	0.132
464.25	0.132
464.71	0.134
465.17	0.133
465.62	0.132
466.08	0.135
466.54	0.136
467.00	0.133
467.46	0.136
467.91	0.135
468.37	0.134
468.83	0.135
469.29	0.137
469.74	0.135
470.20	0.135
470.66	0.134
471.12	0.135
471.57	0.135
472.03	0.134
472.49	0.132
472.95	0.137
473.40	0.134
473.86	0.136
474.32	0.133
474.78	0.134
475.23	0.137
475.69	0.133
476.15	0.136
476.60	0.136
477.06	0.133
477.52	0.132
477.98	0.135
478.43	0.137
478.89	0.134
479.35	0.134
479.80	0.134
480.26	0.133
480.72	0.135
481.18	0.135
481.63	0.133
482.09	0.134
482.55	0.131
483.00	0.131
483.46	0.135
483.92	0.132
484.37	0.134
484.83	0.132
485.29	0.132
485.74	0.131
486.20	0.131
486.66	0.134
487.11	0.133
487.57	0.132
488.03	0.131
488.48	0.133
488.94	0.132
489.40	0.133
489.85	0.132
490.31	0.133
490.77	0.132
491.22	0.136
491.68	0.131
492.13	0.132
492.59	0.133
493.05	0.132
493.50	0.131
493.96	0.131
494.42	0.134
494.87	0.133
495.33	0.130
495.78	0.128
496.24	0.132
496.70	0.134
497.15	0.130
497.61	0.132
498.06	0.129
498.52	0.132
498.98	0.130
499.43	0.132
499.89	0.132
500.34	0.131
500.80	0.132
501.25	0.130
501.71	0.131
502.17	0.129
502.62	0.130
503.08	0.128
503.53	0.128
503.99	0.130
504.44	0.132
504.90	0.128
505.36	0.131
505.81	0.130
506.27	0.128
506.72	0.130
507.18	0.129
507.63	0.128
508.09	0.130
508.54	0.129
509.00	0.130
509.45	0.127
509.91	0.127
510.36	0.130
510.82	0.132
511.27	0.128
511.73	0.131
512.19	0.130
512.64	0.127
513.10	0.130
513.55	0.128
514.01	0.129
514.46	0.129
514.92	0.128
515.37	0.130
515.83	0.128
516.28	0.130
516.73	0.129
517.19	0.128
517.64	0.129
518.10	0.128
518.55	0.127
519.01	0.126
519.46	0.129
519.92	0.125
520.37	0.126
520.83	0.126
521.28	0.126
521.74	0.127
522.19	0.127
522.65	0.127
523.10	0.126
523.55	0.128
524.01	0.127
524.46	0.127
524.92	0.126
525.37	0.127
525.83	0.126
526.28	0.127
526.73	0.128
527.19	0.128
527.64	0.127
528.10	0.128
528.55	0.127
529.01	0.129
529.46	0.127
529.91	0.127
530.37	0.128
530.82	0.127
531.28	0.128
531.73	0.129
532.18	0.130
532.64	0.127
533.09	0.130
533.54	0.127
534.00	0.129
534.45	0.129
534.91	0.126
535.36	0.127
535.81	0.125
536.27	0.129
536.72	0.130
537.17	0.128
537.63	0.127
538.08	0.131
538.54	0.131
538.99	0.132
539.44	0.129
539.90	0.130
540.35	0.131
540.80	0.128
541.26	0.130
541.71	0.131
542.16	0.132
542.62	0.133
543.07	0.131
543.52	0.131
543.98	0.132
544.43	0.132
544.88	0.131
545.34	0.133
545.79	0.131
546.24	0.132
546.69	0.132
547.15	0.134
547.60	0.133
548.05	0.134
548.51	0.135
548.96	0.135
549.41	0.135
549.86	0.137
550.32	0.138
550.77	0.136
551.22	0.135
551.68	0.135
552.13	0.137
552.58	0.136
553.03	0.141
553.49	0.136
553.94	0.137
554.39	0.139
554.84	0.140
555.30	0.140
555.75	0.140
556.20	0.141
556.65	0.141
557.11	0.143
557.56	0.143
558.01	0.144
558.46	0.143
558.92	0.146
559.37	0.149
559.82	0.144
560.27	0.146
560.72	0.147
561.18	0.147
561.63	0.148
562.08	0.147
562.53	0.146
562.99	0.148
563.44	0.149
563.89	0.147
564.34	0.150
564.79	0.152
565.25	0.154
565.70	0.152
566.15	0.153
566.60	0.154
567.05	0.155
567.50	0.155
567.96	0.155
568.41	0.157
568.86	0.156
569.31	0.156
569.76	0.158
570.21	0.158
570.67	0.159
571.12	0.159
571.57	0.158
572.02	0.162
572.47	0.161
572.92	0.162
573.37	0.164
573.83	0.166
574.28	0.166
574.73	0.166
575.18	0.166
575.63	0.166
576.08	0.167
576.53	0.168
576.98	0.171
577.44	0.173
577.89	0.170
578.34	0.173
578.79	0.173
579.24	0.173
579.69	0.175
580.14	0.174
580.59	0.178
581.04	0.178
581.49	0.178
581.95	0.179
582.40	0.182
582.85	0.184
583.30	0.184
583.75	0.187
584.20	0.186
584.65	0.187
585.10	0.189
585.55	0.191
586.00	0.191
586.45	0.194
586.90	0.195
587.35	0.196
587.80	0.196
588.25	0.198
588.71	0.201
589.16	0.204
589.61	0.203
590.06	0.206
590.51	0.207
590.96	0.210
591.41	0.212
591.86	0.216
592.31	0.214
592.76	0.216
593.21	0.216
593.66	0.221
594.11	0.222
594.56	0.223
595.01	0.225
595.46	0.227
595.91	0.228
596.36	0.231
596.81	0.236
597.26	0.234
597.71	0.236
598.16	0.238
598.61	0.241
599.06	0.242
599.51	0.245
599.96	0.244
600.41	0.248
600.86	0.250
601.31	0.251
601.76	0.253
602.21	0.256
602.65	0.259
603.10	0.260
603.55	0.260
604.00	0.263
604.45	0.264
604.90	0.264
605.35	0.270
605.80	0.267
606.25	0.271
606.70	0.273
607.15	0.273
607.60	0.274
608.05	0.276
608.50	0.278
608.95	0.279
609.39	0.281
609.84	0.282
610.29	0.282
610.74	0.282
611.19	0.286
611.64	0.287
612.09	0.287
612.54	0.290
612.99	0.290
613.44	0.288
613.88	0.291
614.33	0.291
614.78	0.294
615.23	0.294
615.68	0.295
616.13	0.292
616.58	0.296
617.03	0.297
617.47	0.296
617.92	0.296
618.37	0.301
618.82	0.299
619.27	0.299
619.72	0.299
620.17	0.299
620.61	0.301
621.06	0.301
621.51	0.301
621.96	0.302
622.41	0.302
622.86	0.304
623.30	0.304
623.75	0.304
624.20	0.306
624.65	0.305
625.10	0.308
625.54	0.306
625.99	0.308
626.44	0.310
626.89	0.310
627.34	0.312
627.78	0.316
628.23	0.314
628.68	0.315
629.13	0.316
629.58	0.316
630.02	0.317
630.47	0.320
630.92	0.321
631.37	0.325
631.81	0.323
632.26	0.326
632.71	0.327
633.16	0.331
633.61	0.332
634.05	0.333
634.50	0.333
634.95	0.339
635.40	0.339
635.84	0.343
636.29	0.344
636.74	0.344
637.18	0.348
637.63	0.351
638.08	0.352
638.53	0.352
638.97	0.358
639.42	0.361
639.87	0.362
640.32	0.366
640.76	0.368
641.21	0.372
641.66	0.373
642.10	0.377
642.55	0.380
643.00	0.382
643.44	0.383
643.89	0.388
644.34	0.391
644.79	0.397
645.23	0.397
645.68	0.398
646.13	0.404
646.57	0.404
647.02	0.411
647.47	0.413
647.91	0.413
648.36	0.417
648.81	0.418
649.25	0.424
649.70	0.427
650.15	0.428
650.59	0.433
651.04	0.435
651.48	0.438
651.93	0.440
652.38	0.445
652.82	0.448
653.27	0.444
653.72	0.450
654.16	0.453
654.61	0.457
655.06	0.458
655.50	0.460
655.95	0.455
656.39	0.460
656.84	0.467
657.29	0.471
657.73	0.469
658.18	0.473
658.62	0.474
659.07	0.476
659.52	0.477
659.96	0.477
660.41	0.481
660.85	0.481
661.30	0.482
661.74	0.484
662.19	0.484
662.64	0.486
663.08	0.486
663.53	0.485
663.97	0.487
664.42	0.484
664.86	0.488
665.31	0.488
665.75	0.490
666.20	0.483
666.65	0.486
667.09	0.486
667.54	0.483
667.98	0.480
668.43	0.481
668.87	0.477
669.32	0.473
669.76	0.473
670.21	0.467
670.65	0.465
671.10	0.461
671.54	0.459
671.99	0.456
672.43	0.445
672.88	0.443
673.32	0.438
673.77	0.434
674.21	0.430
674.66	0.418
675.10	0.416
675.55	0.409
675.99	0.401
676.44	0.395
676.88	0.388
677.33	0.382
677.77	0.371
678.22	0.368
678.66	0.361
679.11	0.350
679.55	0.343
679.99	0.334
680.44	0.329
680.88	0.319
681.33	0.315
681.77	0.305
682.22	0.296
682.66	0.291
683.11	0.281
683.55	0.276
683.99	0.270
684.44	0.265
684.88	0.258
685.33	0.249
685.77	0.242
686.21	0.236
686.66	0.229
687.10	0.222
687.55	0.218
687.99	0.211
688.44	0.207
688.88	0.200
689.32	0.194
689.77	0.190
690.21	0.185
690.65	0.181
691.10	0.175
691.54	0.172
691.99	0.167
692.43	0.164
692.87	0.160
693.32	0.158
693.76	0.153
694.20	0.149
694.65	0.148
695.09	0.142
695.53	0.142
695.98	0.138
696.42	0.135
696.86	0.134
697.31	0.132
697.75	0.128
698.19	0.130
698.64	0.127
699.08	0.123
699.52	0.121
699.97	0.119
700.41	0.118
700.85	0.117
701.30	0.113
701.74	0.112
702.18	0.109
702.63	0.110
703.07	0.106
703.51	0.106
703.96	0.107
704.40	0.107
704.84	0.103
705.28	0.103
705.73	0.104
706.17	0.102
706.61	0.103
707.06	0.100
707.50	0.100
707.94	0.100
708.38	0.099
708.83	0.098
709.27	0.097
709.71	0.098
710.15	0.096
710.60	0.097
711.04	0.093
711.48	0.096
711.92	0.095
712.37	0.094
712.81	0.094
713.25	0.095
713.69	0.093
714.13	0.090
714.58	0.094
715.02	0.090
715.46	0.091
715.90	0.091
716.35	0.091
716.79	0.091
717.23	0.092
717.67	0.091
718.11	0.089
718.56	0.090
719.00	0.089
719.44	0.091
719.88	0.092
720.32	0.092
720.76	0.090
721.21	0.092
721.65	0.090
722.09	0.089
722.53	0.089
722.97	0.091
723.41	0.089
723.86	0.090
724.30	0.090
724.74	0.091
725.18	0.089
725.62	0.089
726.06	0.091
726.50	0.091
726.95	0.091
727.39	0.091
727.83	0.092
728.27	0.092
728.71	0.092
729.15	0.089
729.59	0.089
730.03	0.090
730.48	0.087
730.92	0.090
731.36	0.089
731.80	0.089
732.24	0.092
732.68	0.093
733.12	0.091
733.56	0.091
734.00	0.094
734.44	0.090
734.89	0.092
735.33	0.089
735.77	0.093
736.21	0.093
736.65	0.092
737.09	0.093
737.53	0.092
737.97	0.092
738.41	0.093
738.85	0.094
739.29	0.090
739.73	0.092
740.17	0.092
740.61	0.091
741.05	0.092
741.49	0.093
741.93	0.093
742.37	0.090
742.81	0.092
743.26	0.093
743.70	0.093
744.14	0.093
744.58	0.092
745.02	0.093
745.46	0.093
745.90	0.091
746.34	0.093
746.78	0.095
747.22	0.090
747.66	0.091
748.10	0.094
748.54	0.092
748.98	0.092
749.42	0.093
749.86	0.092
750.29	0.092
750.73	0.093
751.17	0.093
751.61	0.091
752.05	0.090
752.49	0.091
752.93	0.090
753.37	0.094
753.81	0.092
754.25	0.090
754.69	0.092
755.13	0.094
755.57	0.089
756.01	0.091
756.45	0.089
756.89	0.091
757.33	0.091
757.77	0.091
758.21	0.092
758.64	0.088
759.08	0.090
759.52	0.091
759.96	0.090
760.40	0.090
760.84	0.089
761.28	0.088
761.72	0.091
762.16	0.088
762.60	0.088
763.03	0.091
763.47	0.089
763.91	0.089
764.35	0.090
764.79	0.090
765.23	0.089
765.67	0.087
766.11	0.093
766.54	0.088
766.98	0.088
767.42	0.090
767.86	0.091
768.30	0.087
768.74	0.090
769.17	0.088
769.61	0.089
770.05	0.089
770.49	0.090
770.93	0.091
771.37	0.093
771.80	0.089
772.24	0.086
772.68	0.088
773.12	0.089
773.56	0.090
774.00	0.089
774.43	0.086
774.87	0.087
775.31	0.091
775.75	0.088
776.19	0.090
776.62	0.090
777.06	0.092
777.50	0.088
777.94	0.086
778.37	0.089
778.81	0.091
779.25	0.085
779.69	0.087
780.13	0.088
780.56	0.087
781.00	0.090
781.44	0.089
781.88	0.091
782.31	0.087
782.75	0.086
783.19	0.088
783.63	0.093
784.06	0.088
784.50	0.088
784.94	0.093
785.37	0.085
785.81	0.086
786.25	0.086
786.69	0.088
787.12	0.090
787.56	0.090
788.00	0.091
788.43	0.090
788.87	0.090
789.31	0.094
789.75	0.088
790.18	0.090
790.62	0.089
791.06	0.088
791.49	0.090
791.93	0.086
792.37	0.084
792.80	0.090
793.24	0.086
793.68	0.091
794.11	0.091
794.55	0.088
794.99	0.089
795.42	0.089
795.86	0.090
796.30	0.089
796.73	0.088
797.17	0.082
797.61	0.089
798.04	0.087
798.48	0.086
798.91	0.089
799.35	0.090
799.79	0.090
800.22	0.089
800.66	0.084
801.10	0.092
801.53	0.095
801.97	0.088
802.40	0.084
802.84	0.085
803.28	0.088
803.71	0.089
804.15	0.092
804.58	0.091
805.02	0.088
805.46	0.084
805.89	0.088
806.33	0.088
806.76	0.083
807.20	0.091
807.63	0.090
808.07	0.087
808.51	0.089
808.94	0.088
809.38	0.088
809.81	0.091
810.25	0.089
810.68	0.091
811.12	0.087
811.55	0.089
811.99	0.088
812.42	0.089
812.86	0.089
813.29	0.087
813.73	0.089
814.17	0.083
814.60	0.089
815.04	0.087
815.47	0.087
815.91	0.081
816.34	0.088
816.78	0.092
817.21	0.089
817.65	0.087
818.08	0.088
818.52	0.090
818.95	0.090
819.39	0.094
819.82	0.089
820.25	0.088
820.69	0.089
821.12	0.092
821.56	0.086
821.99	0.087
822.43	0.090
822.86	0.093
823.30	0.087
823.73	0.089
824.17	0.092
824.60	0.088
825.04	0.088
825.47	0.091
825.90	0.086
826.34	0.093
826.77	0.088
827.21	0.089
827.64	0.089
828.08	0.095
828.51	0.088
828.94	0.091
829.38	0.091
829.81	0.091
830.25	0.097
830.68	0.092
831.11	0.095
831.55	0.096
831.98	0.098
832.42	0.096
832.85	0.098
833.28	0.096
833.72	0.099
834.15	0.098
834.58	0.092
835.02	0.094
835.45	0.092
835.88	0.099
836.32	0.097
836.75	0.097
837.19	0.099
837.62	0.092
838.05	0.096
838.49	0.093
838.92	0.097
839.35	0.095
839.79	0.095
840.22	0.092
840.65	0.099
841.09	0.098
841.52	0.099
841.95	0.094
842.39	0.091
842.82	0.097
843.25	0.103
843.68	0.101
844.12	0.098
844.55	0.098
844.98	0.097
845.42	0.096
845.85	0.095
846.28	0.099
846.71	0.093
847.15	0.099
847.58	0.099
848.01	0.097
848.45	0.096
848.88	0.100
849.31	0.095
849.74	0.096
850.18	0.094
850.61	0.102
851.04	0.095
851.47	0.093
851.91	0.097
852.34	0.098
852.77	0.097
853.20	0.102
853.64	0.100
854.07	0.098
854.50	0.099
854.93	0.091
855.36	0.101
855.80	0.098
856.23	0.101
856.66	0.099
857.09	0.103
857.52	0.103
857.96	0.099
858.39	0.102
858.82	0.094
859.25	0.106
859.68	0.103
860.12	0.099
860.55	0.097
860.98	0.103
861.41	0.098
861.84	0.103
862.27	0.107
862.71	0.105
863.14	0.105
863.57	0.104
864.00	0.101
864.43	0.097
864.86	0.109
865.30	0.109
865.73	0.105
866.16	0.098
866.59	0.107
867.02	0.101
867.45	0.101
867.88	0.100
868.31	0.106
868.75	0.101
869.18	0.102
869.61	0.110
870.04	0.106
870.47	0.102
870.90	0.108
871.33	0.107
871.76	0.102
872.19	0.098
872.62	0.106
873.06	0.100
873.49	0.102
873.92	0.106
874.35	0.103
874.78	0.109
875.21	0.107
875.64	0.108
876.07	0.107
876.50	0.106
876.93	0.104
877.36	0.109
877.79	0.105
878.22	0.103
878.65	0.107
879.08	0.112
879.51	0.106
879.94	0.108
880.37	0.106
880.80	0.106
881.23	0.106
881.67	0.103
882.10	0.110
882.53	0.108
882.96	0.111
883.39	0.112
883.82	0.112
884.25	0.105
884.68	0.109
885.11	0.108
885.54	0.112
885.97	0.104
886.39	0.107
886.82	0.107
887.25	0.110
887.68	0.111
888.11	0.104
888.54	0.107
888.97	0.105
889.40	0.110
889.83	0.108
890.26	0.113
890.69	0.106
891.12	0.105
891.55	0.109
891.98	0.114
892.41	0.111
892.84	0.110
893.27	0.110
893.70	0.109
894.13	0.109
894.56	0.110
894.98	0.109
895.41	0.108
895.84	0.114
896.27	0.107
896.70	0.109
897.13	0.106
897.56	0.112
897.99	0.111
898.42	0.114
898.85	0.116
899.27	0.116
899.70	0.115
900.13	0.114
900.56	0.116
900.99	0.110
901.42	0.106
901.85	0.110
902.28	0.114
902.70	0.114
903.13	0.111
903.56	0.116
903.99	0.110
904.42	0.113
904.85	0.113
905.27	0.113
905.70	0.117
906.13	0.112
906.56	0.112
906.99	0.111
907.42	0.108
907.84	0.113
908.27	0.114
908.70	0.111
909.13	0.112
909.56	0.111
909.98	0.110
910.41	0.111
910.84	0.113
911.27	0.111
911.70	0.110
912.12	0.108
912.55	0.110
912.98	0.106
913.41	0.112
913.84	0.108
914.26	0.107
914.69	0.110
915.12	0.112
915.55	0.106
915.97	0.111
916.40	0.111
916.83	0.110
917.26	0.111
917.68	0.111
918.11	0.114
918.54	0.113
918.97	0.109
919.39	0.116
919.82	0.115
920.25	0.113
920.67	0.113
921.10	0.112
921.53	0.111
921.96	0.115
922.38	0.116
922.81	0.113
923.24	0.118
923.66	0.116
924.09	0.117
924.52	0.116
924.94	0.117
925.37	0.123
925.80	0.118
926.22	0.119
926.65	0.118
927.08	0.120
927.50	0.122
927.93	0.123
928.36	0.120
928.78	0.126
929.21	0.123
929.64	0.125
930.06	0.127
930.49	0.128
930.92	0.128
931.34	0.127
931.77	0.129
932.20	0.130
932.62	0.126
933.05	0.126
933.47	0.132
933.90	0.134
934.33	0.137
934.75	0.132
935.18	0.137
935.61	0.134
936.03	0.141
936.46	0.138
936.88	0.141
937.31	0.143
937.73	0.149
938.16	0.150
938.59	0.153
939.01	0.157
939.44	0.159
939.86	0.153
940.29	0.157
940.71	0.166
941.14	0.164
941.57	0.163
941.99	0.166
942.42	0.170
942.84	0.171
943.27	0.169
943.69	0.173
944.12	0.177
944.54	0.174
944.97	0.181
945.39	0.182
945.82	0.187
946.24	0.184
946.67	0.187
947.09	0.188
947.52	0.193
947.94	0.192
948.37	0.194
948.79	0.201
949.22	0.203
949.64	0.204
950.07	0.203
950.49	0.211
950.92	0.208
951.34	0.208
951.77	0.216
952.19	0.208
952.62	0.216
953.04	0.220
953.47	0.222
953.89	0.225
954.32	0.223
954.74	0.233
955.17	0.237
955.59	0.238
956.01	0.248
956.44	0.245
956.86	0.240
957.29	0.248
957.71	0.255
958.14	0.248
958.56	0.251
958.98	0.262
959.41	0.257
959.83	0.259
960.26	0.263
960.68	0.265
961.10	0.270
961.53	0.271
961.95	0.266
962.38	0.272
962.80	0.274
963.22	0.270
963.65	0.268
964.07	0.269
964.50	0.274
964.92	0.279
965.34	0.273
965.77	0.279
966.19	0.270
966.61	0.273
967.04	0.279
967.46	0.274
967.88	0.277
968.31	0.282
968.73	0.281
969.15	0.277
969.58	0.279
970.00	0.275
970.42	0.278
970.85	0.275
971.27	0.284
971.69	0.282
972.12	0.277
972.54	0.284
972.96	0.282
973.39	0.289
973.81	0.285
974.23	0.289
974.65	0.280
975.08	0.283
975.50	0.282
975.92	0.284
976.35	0.285
976.77	0.279
977.19	0.284
977.61	0.283
978.04	0.285
978.46	0.274
978.88	0.280
979.30	0.282
979.73	0.283
980.15	0.283
980.57	0.284
980.99	0.284
981.42	0.274
981.84	0.284
982.26	0.286
982.68	0.282
983.11	0.282
983.53	0.285
983.95	0.280
984.37	0.279
984.79	0.278
985.22	0.276
985.64	0.284
986.06	0.274
986.48	0.281
986.90	0.279
987.33	0.275
987.75	0.280
988.17	0.285
988.59	0.279
989.01	0.271
989.43	0.282
989.86	0.277
990.28	0.272
990.70	0.264
991.12	0.269
991.54	0.270
991.96	0.269
992.39	0.263
992.81	0.270
993.23	0.264
993.65	0.272
994.07	0.266
994.49	0.272
994.91	0.265
995.34	0.261
995.76	0.265
996.18	0.265
996.60	0.261
997.02	0.258
997.44	0.258
997.86	0.263
998.28	0.256
998.70	0.262
999.12	0.258
999.55	0.264
999.97	0.259
1000.39	0.256
1000.81	0.260
1001.23	0.247
1001.65	0.249
1002.07	0.256
1002.49	0.245
1002.91	0.252
1003.33	0.246
1003.75	0.250
1004.17	0.248
1004.59	0.252
1005.01	0.249
1005.43	0.246
1005.85	0.241
1006.28	0.241
1006.70	0.248
1007.12	0.242
1007.54	0.245
1007.96	0.244
1008.38	0.238
1008.80	0.246
1009.22	0.245
1009.64	0.244
1010.06	0.240
1010.48	0.236
1010.90	0.238
1011.32	0.243
1011.74	0.238
1012.16	0.233
1012.58	0.237
1013.00	0.231
1013.42	0.225
1013.84	0.245
1014.26	0.234
1014.67	0.233
1015.09	0.225
1015.51	0.238
1015.93	0.231
1016.35	0.220
1016.77	0.227
1017.19	0.224
1017.61	0.220
1018.03	0.225
1018.45	0.231
1018.87	0.219
1019.29	0.216
1019.71	0.217
1020.13	0.218
1020.55	0.218
1020.97	0.198
1021.38	0.210
1021.80	0.217
1022.22	0.213
1022.64	0.213
1023.06	0.228
1023.48	0.219
1023.90	0.218
1024.32	0.208
1024.74	0.203
1025.15	0.208
1025.57	0.210
1025.99	0.211
1026.41	0.218
1026.83	0.201
1027.25	0.201
1027.67	0.204
1028.08	0.212
1028.50	0.210
1028.92	0.205
1029.34	0.203
1029.76	0.211
1030.18	0.199
1030.60	0.205
1031.01	0.219
1031.43	0.190
1031.85	0.196
1032.27	0.210
1032.69	0.187
1033.10	0.207
1033.52	0.203
1033.94	0.207
1034.36	0.204
1034.78	0.206
1035.19	0.199
1035.61	0.207
1036.03	0.181
1036.45	0.199
1036.87	0.218
1037.28	0.182
1037.70	0.198
1038.12	0.210
1038.54	0.182
1038.95	0.205
1039.37	0.190
1039.79	0.186
1040.21	0.189
1040.62	0.174
1041.04	0.206
1041.46	0.210
1041.88	0.174
1042.29	0.188
1042.71	0.191
1043.13	0.154
1043.55	0.194
1043.96	0.179
1044.38	0.188
1044.80	0.201
1045.21	0.197
1045.63	0.195
1046.05	0.197
1046.47	0.169
1046.88	0.194
1047.30	0.191
1047.72	0.188
1048.13	0.185
1048.55	0.219
1048.97	0.204
1049.38	0.198
1049.80	0.173
1050.22	0.187
1050.63	0.197
1051.05	0.176
1051.47	0.210
1051.88	0.192
1052.30	0.186
1052.72	0.208
1053.13	0.206
1053.55	0.196
1053.97	0.204
1054.38	0.217
1054.80	0.201
1055.21	0.214
1055.63	0.180
1056.05	0.196
1056.46	0.251
1056.88	0.226
1057.29	0.229
1057.71	0.254
1058.13	0.206
1058.54	0.201
1058.96	0.213
1059.37	0.276
1059.79	0.234
1060.21	0.202
1060.62	0.180
1061.04	0.263
1061.45	0.237
1061.87	0.259
1062.28	0.242
1062.70	0.238
1063.12	0.275
1063.53	0.259
1063.95	0.310
1064.36	0.264
1064.78	0.225
1065.19	0.303
1065.61	0.298
1066.02	0.251
1066.44	0.298
1066.85	0.387
1067.27	0.306
1067.68	0.302
1068.10	0.371
1068.51	0.411
1068.93	0.301
1069.35	0.415
1069.76	0.537
1070.17	0.322
1070.59	0.344
1071.00	0.486
1071.42	0.532
1071.83	0.432
1072.25	0.481
1072.66	0.697
1073.08	0.758
1073.49	0.559
1073.91	0.481
1074.32	1.083
1074.74	0.781
1075.15	0.392
1075.57	0.565
1075.98	0.845
1076.40	0.729
1076.81	0.710
1077.22	1.356
1077.64	-0.000
1078.05	1.080
1078.47	1.112
1078.88	-0.000
1079.30	0.877
1079.71	1.082
1080.12	-0.000
1080.54	-0.000
1080.95	-0.000
1081.37	1.268
1081.78	-0.000
1082.19	-0.000
1082.61	-0.000
1083.02	-0.000
1083.44	-0.000
1083.85	-0.000
1084.26	-0.000
1084.68	-0.000
1085.09	-0.000
1085.50	-0.000
1085.92	-0.000
1086.33	-0.000
1086.74	-0.000
1087.16	-0.000
1087.57	-0.000
1087.98	-0.000
1088.40	-0.000
1088.81	-0.000
1089.22	-0.000
1089.64	-0.000
1090.05	-0.000
1090.46	-0.000
1090.88	-0.000
1091.29	-0.000
1091.70	-0.000
1092.12	-0.000
1092.53	-0.000
1092.94	-0.000
1093.36	-0.000
1093.77	-0.000
1094.18	-0.000
1094.59	-0.000
1095.01	-0.000
1095.42	-0.000
1095.83	-0.000
1096.25	-0.000
1096.66	-0.000
1097.07	-0.000
1097.48	-0.000
1097.90	-0.000
1098.31	-0.000
1098.72	-0.000
1099.13	-0.000
>>>>>End Processed Spectral Data<<<<<
