SpectraSuite Data File
++++++++++++++++++++++++++++++++++++
Date: Wed May 04 14:04:05 CEST 2016
User: spectrasuite
Dark Spectrum Present: Yes
Reference Spectrum Present: Yes
Number of Sampled Component Spectra: 1
Spectrometers: HR+C0708
Integration Time (usec): 1000 (HR+C0708)
Spectra Averaged: 10 (HR+C0708)
Boxcar Smoothing: 0 (HR+C0708)
Correct for Electrical Dark: No (HR+C0708)
Strobe/Lamp Enabled: No (HR+C0708)
Correct for Detector Non-linearity: No (HR+C0708)
Correct for Stray Light: No (HR+C0708)
Number of Pixels in Processed Spectrum: 2048
>>>>>Begin Processed Spectral Data<<<<<
188.76	0.813
189.23	-0.000
189.70	1.429
190.17	-0.000
190.64	-0.000
191.12	-0.000
191.59	-0.000
192.06	-0.000
192.53	-0.000
193.01	-0.000
193.48	0.926
193.95	-0.000
194.42	-0.000
194.90	-0.000
195.37	-0.000
195.84	-0.000
196.31	1.186
196.78	-0.000
197.26	-0.000
197.73	-0.000
198.20	-0.000
198.67	-0.000
199.14	-0.000
199.62	-0.000
200.09	-0.000
200.56	-0.000
201.03	0.705
201.50	0.545
201.97	1.174
202.45	0.793
202.92	0.864
203.39	0.899
203.86	0.859
204.33	0.886
204.80	1.045
205.28	0.637
205.75	2.619
206.22	0.672
206.69	0.793
207.16	0.834
207.63	1.057
208.11	0.612
208.58	0.789
209.05	0.986
209.52	1.668
209.99	0.661
210.46	0.557
210.93	0.810
211.41	0.718
211.88	0.694
212.35	-0.000
212.82	0.974
213.29	0.808
213.76	0.918
214.23	0.930
214.70	1.467
215.18	0.687
215.65	0.542
216.12	0.440
216.59	0.612
217.06	0.681
217.53	1.229
218.00	0.463
218.47	0.671
218.94	0.962
219.41	0.476
219.89	0.596
220.36	0.628
220.83	0.738
221.30	1.734
221.77	0.793
222.24	0.677
222.71	0.904
223.18	0.907
223.65	0.501
224.12	0.884
224.59	0.771
225.06	1.164
225.54	0.954
226.01	1.005
226.48	1.211
226.95	1.203
227.42	1.133
227.89	1.730
228.36	1.258
228.83	1.233
229.30	1.241
229.77	1.329
230.24	1.282
230.71	1.392
231.18	1.487
231.65	2.258
232.12	1.618
232.59	1.631
233.06	1.868
233.53	1.689
234.00	1.581
234.47	1.977
234.94	2.067
235.41	1.736
235.88	2.151
236.35	2.152
236.82	1.990
237.29	2.102
237.76	2.101
238.23	2.558
238.70	2.437
239.17	2.168
239.64	2.648
240.11	2.396
240.58	2.166
241.05	2.301
241.52	2.253
241.99	2.227
242.46	2.375
242.93	2.177
243.40	2.868
243.87	2.368
244.34	2.175
244.81	2.488
245.28	2.565
245.75	2.459
246.22	2.406
246.69	2.538
247.16	2.371
247.63	2.623
248.10	2.470
248.57	3.196
249.04	2.579
249.51	2.430
249.98	2.943
250.45	2.613
250.92	2.554
251.39	2.340
251.85	2.280
252.32	2.122
252.79	2.096
253.26	1.979
253.73	1.872
254.20	1.750
254.67	1.661
255.14	1.615
255.61	1.527
256.08	1.457
256.55	1.425
257.02	1.367
257.49	1.320
257.95	1.288
258.42	1.236
258.89	1.212
259.36	1.180
259.83	1.153
260.30	1.130
260.77	1.098
261.24	1.079
261.71	1.067
262.17	1.037
262.64	1.017
263.11	1.004
263.58	0.984
264.05	0.967
264.52	0.958
264.99	0.940
265.46	0.927
265.92	0.915
266.39	0.901
266.86	0.897
267.33	0.879
267.80	0.870
268.27	0.865
268.74	0.849
269.20	0.838
269.67	0.833
270.14	0.824
270.61	0.815
271.08	0.806
271.55	0.798
272.01	0.795
272.48	0.779
272.95	0.775
273.42	0.773
273.89	0.768
274.36	0.762
274.82	0.754
275.29	0.747
275.76	0.747
276.23	0.741
276.70	0.735
277.16	0.733
277.63	0.736
278.10	0.726
278.57	0.730
279.04	0.718
279.50	0.718
279.97	0.715
280.44	0.710
280.91	0.711
281.38	0.712
281.84	0.704
282.31	0.709
282.78	0.709
283.25	0.707
283.72	0.706
284.18	0.702
284.65	0.706
285.12	0.707
285.59	0.704
286.05	0.702
286.52	0.704
286.99	0.703
287.46	0.709
287.92	0.701
288.39	0.702
288.86	0.709
289.33	0.704
289.79	0.700
290.26	0.701
290.73	0.701
291.20	0.698
291.66	0.695
292.13	0.695
292.60	0.689
293.07	0.687
293.53	0.679
294.00	0.680
294.47	0.668
294.93	0.666
295.40	0.660
295.87	0.654
296.34	0.650
296.80	0.636
297.27	0.628
297.74	0.622
298.20	0.615
298.67	0.601
299.14	0.594
299.60	0.585
300.07	0.582
300.54	0.570
301.01	0.562
301.47	0.554
301.94	0.549
302.41	0.535
302.87	0.532
303.34	0.520
303.81	0.515
304.27	0.505
304.74	0.498
305.21	0.486
305.67	0.484
306.14	0.475
306.61	0.473
307.07	0.464
307.54	0.458
308.01	0.450
308.47	0.446
308.94	0.439
309.40	0.440
309.87	0.433
310.34	0.429
310.80	0.425
311.27	0.419
311.74	0.417
312.20	0.415
312.67	0.413
313.13	0.404
313.60	0.403
314.07	0.400
314.53	0.396
315.00	0.395
315.47	0.393
315.93	0.394
316.40	0.388
316.86	0.388
317.33	0.384
317.80	0.384
318.26	0.380
318.73	0.379
319.19	0.380
319.66	0.375
320.13	0.370
320.59	0.373
321.06	0.372
321.52	0.368
321.99	0.366
322.45	0.365
322.92	0.363
323.39	0.362
323.85	0.363
324.32	0.360
324.78	0.356
325.25	0.353
325.71	0.354
326.18	0.348
326.64	0.348
327.11	0.345
327.58	0.346
328.04	0.350
328.51	0.343
328.97	0.342
329.44	0.342
329.90	0.340
330.37	0.334
330.83	0.332
331.30	0.330
331.76	0.327
332.23	0.326
332.69	0.323
333.16	0.327
333.62	0.322
334.09	0.320
334.56	0.317
335.02	0.313
335.49	0.311
335.95	0.308
336.42	0.308
336.88	0.301
337.35	0.300
337.81	0.300
338.28	0.301
338.74	0.300
339.20	0.299
339.67	0.301
340.13	0.300
340.60	0.294
341.06	0.292
341.53	0.290
341.99	0.289
342.46	0.289
342.92	0.285
343.39	0.282
343.85	0.280
344.32	0.285
344.78	0.280
345.25	0.284
345.71	0.281
346.17	0.283
346.64	0.281
347.10	0.280
347.57	0.277
348.03	0.272
348.50	0.272
348.96	0.274
349.43	0.270
349.89	0.272
350.35	0.266
350.82	0.266
351.28	0.266
351.75	0.264
352.21	0.267
352.67	0.257
353.14	0.261
353.60	0.256
354.07	0.253
354.53	0.254
355.00	0.251
355.46	0.245
355.92	0.245
356.39	0.244
356.85	0.240
357.31	0.235
357.78	0.235
358.24	0.232
358.71	0.231
359.17	0.229
359.63	0.226
360.10	0.220
360.56	0.217
361.03	0.216
361.49	0.213
361.95	0.209
362.42	0.208
362.88	0.207
363.34	0.202
363.81	0.196
364.27	0.196
364.73	0.195
365.20	0.191
365.66	0.189
366.12	0.188
366.59	0.186
367.05	0.184
367.51	0.180
367.98	0.181
368.44	0.179
368.90	0.178
369.37	0.178
369.83	0.178
370.29	0.173
370.76	0.172
371.22	0.173
371.68	0.174
372.15	0.172
372.61	0.168
373.07	0.171
373.54	0.169
374.00	0.170
374.46	0.173
374.92	0.169
375.39	0.169
375.85	0.168
376.31	0.171
376.78	0.168
377.24	0.167
377.70	0.167
378.16	0.167
378.63	0.166
379.09	0.167
379.55	0.168
380.01	0.167
380.48	0.167
380.94	0.165
381.40	0.165
381.87	0.167
382.33	0.164
382.79	0.162
383.25	0.164
383.72	0.166
384.18	0.165
384.64	0.165
385.10	0.161
385.56	0.162
386.03	0.163
386.49	0.161
386.95	0.161
387.41	0.159
387.88	0.158
388.34	0.158
388.80	0.162
389.26	0.159
389.72	0.158
390.19	0.155
390.65	0.156
391.11	0.156
391.57	0.157
392.04	0.159
392.50	0.158
392.96	0.159
393.42	0.157
393.88	0.158
394.34	0.156
394.81	0.156
395.27	0.158
395.73	0.152
396.19	0.154
396.65	0.154
397.12	0.152
397.58	0.153
398.04	0.154
398.50	0.154
398.96	0.153
399.42	0.153
399.89	0.154
400.35	0.153
400.81	0.153
401.27	0.152
401.73	0.150
402.19	0.152
402.65	0.148
403.12	0.152
403.58	0.147
404.04	0.146
404.50	0.145
404.96	0.143
405.42	0.150
405.88	0.147
406.34	0.146
406.81	0.148
407.27	0.144
407.73	0.142
408.19	0.144
408.65	0.142
409.11	0.144
409.57	0.141
410.03	0.145
410.49	0.143
410.96	0.141
411.42	0.145
411.88	0.141
412.34	0.137
412.80	0.141
413.26	0.143
413.72	0.139
414.18	0.138
414.64	0.139
415.10	0.139
415.56	0.141
416.02	0.136
416.48	0.139
416.95	0.138
417.41	0.136
417.87	0.140
418.33	0.138
418.79	0.134
419.25	0.138
419.71	0.138
420.17	0.135
420.63	0.134
421.09	0.135
421.55	0.137
422.01	0.134
422.47	0.138
422.93	0.136
423.39	0.134
423.85	0.137
424.31	0.134
424.77	0.135
425.23	0.135
425.69	0.136
426.15	0.136
426.61	0.136
427.07	0.129
427.53	0.133
427.99	0.132
428.45	0.135
428.91	0.132
429.37	0.133
429.83	0.131
430.29	0.134
430.75	0.132
431.21	0.134
431.67	0.137
432.13	0.134
432.59	0.132
433.05	0.135
433.51	0.133
433.97	0.130
434.43	0.136
434.89	0.135
435.35	0.131
435.81	0.131
436.27	0.133
436.73	0.132
437.19	0.136
437.65	0.129
438.11	0.133
438.57	0.131
439.03	0.129
439.48	0.128
439.94	0.130
440.40	0.132
440.86	0.127
441.32	0.130
441.78	0.129
442.24	0.130
442.70	0.132
443.16	0.130
443.62	0.132
444.08	0.128
444.54	0.131
444.99	0.129
445.45	0.129
445.91	0.127
446.37	0.129
446.83	0.129
447.29	0.130
447.75	0.125
448.21	0.133
448.67	0.129
449.12	0.126
449.58	0.130
450.04	0.131
450.50	0.129
450.96	0.125
451.42	0.127
451.88	0.130
452.34	0.126
452.79	0.130
453.25	0.131
453.71	0.125
454.17	0.123
454.63	0.125
455.09	0.128
455.55	0.126
456.00	0.125
456.46	0.125
456.92	0.127
457.38	0.124
457.84	0.128
458.30	0.128
458.75	0.126
459.21	0.125
459.67	0.127
460.13	0.129
460.59	0.126
461.04	0.127
461.50	0.126
461.96	0.129
462.42	0.124
462.88	0.124
463.33	0.126
463.79	0.126
464.25	0.125
464.71	0.128
465.17	0.126
465.62	0.126
466.08	0.127
466.54	0.129
467.00	0.126
467.46	0.125
467.91	0.125
468.37	0.125
468.83	0.125
469.29	0.127
469.74	0.126
470.20	0.126
470.66	0.124
471.12	0.126
471.57	0.125
472.03	0.127
472.49	0.126
472.95	0.128
473.40	0.124
473.86	0.126
474.32	0.124
474.78	0.126
475.23	0.126
475.69	0.125
476.15	0.127
476.60	0.126
477.06	0.126
477.52	0.124
477.98	0.127
478.43	0.127
478.89	0.126
479.35	0.128
479.80	0.127
480.26	0.125
480.72	0.127
481.18	0.126
481.63	0.126
482.09	0.126
482.55	0.124
483.00	0.122
483.46	0.127
483.92	0.124
484.37	0.124
484.83	0.123
485.29	0.126
485.74	0.124
486.20	0.126
486.66	0.125
487.11	0.126
487.57	0.125
488.03	0.125
488.48	0.126
488.94	0.123
489.40	0.125
489.85	0.125
490.31	0.125
490.77	0.124
491.22	0.127
491.68	0.124
492.13	0.124
492.59	0.126
493.05	0.123
493.50	0.125
493.96	0.124
494.42	0.125
494.87	0.125
495.33	0.123
495.78	0.123
496.24	0.124
496.70	0.126
497.15	0.124
497.61	0.124
498.06	0.124
498.52	0.125
498.98	0.122
499.43	0.124
499.89	0.125
500.34	0.123
500.80	0.122
501.25	0.123
501.71	0.121
502.17	0.122
502.62	0.123
503.08	0.120
503.53	0.121
503.99	0.124
504.44	0.123
504.90	0.120
505.36	0.120
505.81	0.123
506.27	0.121
506.72	0.121
507.18	0.121
507.63	0.122
508.09	0.121
508.54	0.121
509.00	0.122
509.45	0.123
509.91	0.120
510.36	0.122
510.82	0.122
511.27	0.121
511.73	0.120
512.19	0.120
512.64	0.119
513.10	0.121
513.55	0.121
514.01	0.120
514.46	0.121
514.92	0.120
515.37	0.123
515.83	0.123
516.28	0.122
516.73	0.121
517.19	0.122
517.64	0.121
518.10	0.121
518.55	0.120
519.01	0.122
519.46	0.119
519.92	0.119
520.37	0.118
520.83	0.120
521.28	0.119
521.74	0.119
522.19	0.120
522.65	0.118
523.10	0.118
523.55	0.120
524.01	0.121
524.46	0.118
524.92	0.119
525.37	0.121
525.83	0.119
526.28	0.120
526.73	0.121
527.19	0.119
527.64	0.118
528.10	0.118
528.55	0.120
529.01	0.120
529.46	0.120
529.91	0.119
530.37	0.120
530.82	0.118
531.28	0.120
531.73	0.120
532.18	0.122
532.64	0.121
533.09	0.120
533.54	0.120
534.00	0.120
534.45	0.121
534.91	0.120
535.36	0.120
535.81	0.121
536.27	0.121
536.72	0.121
537.17	0.122
537.63	0.121
538.08	0.122
538.54	0.124
538.99	0.122
539.44	0.122
539.90	0.124
540.35	0.121
540.80	0.123
541.26	0.124
541.71	0.126
542.16	0.123
542.62	0.126
543.07	0.125
543.52	0.123
543.98	0.124
544.43	0.125
544.88	0.125
545.34	0.128
545.79	0.125
546.24	0.126
546.69	0.126
547.15	0.127
547.60	0.129
548.05	0.128
548.51	0.128
548.96	0.128
549.41	0.129
549.86	0.130
550.32	0.130
550.77	0.130
551.22	0.131
551.68	0.131
552.13	0.132
552.58	0.131
553.03	0.133
553.49	0.131
553.94	0.131
554.39	0.135
554.84	0.135
555.30	0.134
555.75	0.134
556.20	0.135
556.65	0.137
557.11	0.136
557.56	0.137
558.01	0.139
558.46	0.138
558.92	0.139
559.37	0.141
559.82	0.141
560.27	0.141
560.72	0.142
561.18	0.142
561.63	0.143
562.08	0.143
562.53	0.143
562.99	0.145
563.44	0.145
563.89	0.146
564.34	0.147
564.79	0.149
565.25	0.149
565.70	0.149
566.15	0.148
566.60	0.151
567.05	0.149
567.50	0.151
567.96	0.151
568.41	0.153
568.86	0.154
569.31	0.153
569.76	0.154
570.21	0.156
570.67	0.154
571.12	0.158
571.57	0.158
572.02	0.160
572.47	0.159
572.92	0.161
573.37	0.163
573.83	0.162
574.28	0.162
574.73	0.163
575.18	0.163
575.63	0.166
576.08	0.169
576.53	0.167
576.98	0.167
577.44	0.171
577.89	0.168
578.34	0.171
578.79	0.171
579.24	0.172
579.69	0.173
580.14	0.174
580.59	0.177
581.04	0.177
581.49	0.178
581.95	0.178
582.40	0.182
582.85	0.184
583.30	0.185
583.75	0.187
584.20	0.188
584.65	0.187
585.10	0.192
585.55	0.192
586.00	0.193
586.45	0.195
586.90	0.196
587.35	0.199
587.80	0.200
588.25	0.202
588.71	0.205
589.16	0.208
589.61	0.207
590.06	0.209
590.51	0.212
590.96	0.213
591.41	0.217
591.86	0.218
592.31	0.217
592.76	0.221
593.21	0.223
593.66	0.228
594.11	0.228
594.56	0.230
595.01	0.233
595.46	0.233
595.91	0.237
596.36	0.240
596.81	0.243
597.26	0.242
597.71	0.244
598.16	0.247
598.61	0.250
599.06	0.251
599.51	0.252
599.96	0.253
600.41	0.255
600.86	0.258
601.31	0.260
601.76	0.264
602.21	0.268
602.65	0.270
603.10	0.268
603.55	0.271
604.00	0.277
604.45	0.274
604.90	0.277
605.35	0.281
605.80	0.283
606.25	0.283
606.70	0.286
607.15	0.288
607.60	0.290
608.05	0.290
608.50	0.293
608.95	0.294
609.39	0.296
609.84	0.297
610.29	0.299
610.74	0.298
611.19	0.299
611.64	0.304
612.09	0.303
612.54	0.305
612.99	0.303
613.44	0.303
613.88	0.307
614.33	0.307
614.78	0.311
615.23	0.310
615.68	0.310
616.13	0.311
616.58	0.312
617.03	0.315
617.47	0.314
617.92	0.317
618.37	0.316
618.82	0.316
619.27	0.315
619.72	0.317
620.17	0.319
620.61	0.316
621.06	0.318
621.51	0.321
621.96	0.319
622.41	0.319
622.86	0.322
623.30	0.321
623.75	0.323
624.20	0.323
624.65	0.325
625.10	0.325
625.54	0.323
625.99	0.324
626.44	0.331
626.89	0.327
627.34	0.329
627.78	0.330
628.23	0.331
628.68	0.333
629.13	0.333
629.58	0.335
630.02	0.338
630.47	0.339
630.92	0.340
631.37	0.342
631.81	0.345
632.26	0.344
632.71	0.349
633.16	0.349
633.61	0.351
634.05	0.354
634.50	0.353
634.95	0.357
635.40	0.359
635.84	0.363
636.29	0.365
636.74	0.368
637.18	0.370
637.63	0.374
638.08	0.377
638.53	0.379
638.97	0.379
639.42	0.383
639.87	0.385
640.32	0.391
640.76	0.393
641.21	0.395
641.66	0.399
642.10	0.400
642.55	0.408
643.00	0.407
643.44	0.409
643.89	0.415
644.34	0.417
644.79	0.423
645.23	0.425
645.68	0.429
646.13	0.430
646.57	0.435
647.02	0.440
647.47	0.445
647.91	0.446
648.36	0.448
648.81	0.453
649.25	0.455
649.70	0.459
650.15	0.462
650.59	0.465
651.04	0.472
651.48	0.472
651.93	0.477
652.38	0.481
652.82	0.483
653.27	0.483
653.72	0.491
654.16	0.489
654.61	0.494
655.06	0.497
655.50	0.499
655.95	0.502
656.39	0.502
656.84	0.506
657.29	0.513
657.73	0.513
658.18	0.516
658.62	0.516
659.07	0.519
659.52	0.521
659.96	0.525
660.41	0.528
660.85	0.529
661.30	0.531
661.74	0.533
662.19	0.535
662.64	0.533
663.08	0.532
663.53	0.536
663.97	0.533
664.42	0.531
664.86	0.537
665.31	0.537
665.75	0.538
666.20	0.534
666.65	0.535
667.09	0.536
667.54	0.532
667.98	0.528
668.43	0.529
668.87	0.528
669.32	0.523
669.76	0.521
670.21	0.520
670.65	0.512
671.10	0.510
671.54	0.505
671.99	0.501
672.43	0.492
672.88	0.487
673.32	0.485
673.77	0.478
674.21	0.472
674.66	0.465
675.10	0.457
675.55	0.449
675.99	0.442
676.44	0.431
676.88	0.425
677.33	0.418
677.77	0.407
678.22	0.400
678.66	0.391
679.11	0.383
679.55	0.373
679.99	0.364
680.44	0.354
680.88	0.344
681.33	0.338
681.77	0.328
682.22	0.319
682.66	0.311
683.11	0.303
683.55	0.294
683.99	0.288
684.44	0.280
684.88	0.273
685.33	0.264
685.77	0.254
686.21	0.247
686.66	0.238
687.10	0.231
687.55	0.228
687.99	0.221
688.44	0.214
688.88	0.205
689.32	0.200
689.77	0.195
690.21	0.188
690.65	0.181
691.10	0.177
691.54	0.174
691.99	0.170
692.43	0.165
692.87	0.159
693.32	0.156
693.76	0.152
694.20	0.147
694.65	0.145
695.09	0.141
695.53	0.136
695.98	0.134
696.42	0.132
696.86	0.129
697.31	0.126
697.75	0.123
698.19	0.120
698.64	0.117
699.08	0.115
699.52	0.114
699.97	0.113
700.41	0.110
700.85	0.111
701.30	0.104
701.74	0.105
702.18	0.102
702.63	0.100
703.07	0.098
703.51	0.100
703.96	0.097
704.40	0.097
704.84	0.096
705.28	0.093
705.73	0.093
706.17	0.090
706.61	0.093
707.06	0.090
707.50	0.091
707.94	0.090
708.38	0.087
708.83	0.087
709.27	0.088
709.71	0.085
710.15	0.085
710.60	0.087
711.04	0.083
711.48	0.086
711.92	0.084
712.37	0.081
712.81	0.082
713.25	0.083
713.69	0.080
714.13	0.079
714.58	0.080
715.02	0.079
715.46	0.078
715.90	0.079
716.35	0.079
716.79	0.081
717.23	0.079
717.67	0.079
718.11	0.078
718.56	0.079
719.00	0.078
719.44	0.078
719.88	0.081
720.32	0.079
720.76	0.076
721.21	0.077
721.65	0.076
722.09	0.078
722.53	0.078
722.97	0.077
723.41	0.076
723.86	0.076
724.30	0.077
724.74	0.076
725.18	0.077
725.62	0.078
726.06	0.078
726.50	0.076
726.95	0.079
727.39	0.076
727.83	0.078
728.27	0.079
728.71	0.077
729.15	0.076
729.59	0.075
730.03	0.080
730.48	0.077
730.92	0.078
731.36	0.076
731.80	0.078
732.24	0.079
732.68	0.079
733.12	0.076
733.56	0.079
734.00	0.081
734.44	0.080
734.89	0.080
735.33	0.080
735.77	0.081
736.21	0.080
736.65	0.079
737.09	0.082
737.53	0.082
737.97	0.080
738.41	0.080
738.85	0.078
739.29	0.077
739.73	0.079
740.17	0.078
740.61	0.079
741.05	0.080
741.49	0.080
741.93	0.079
742.37	0.079
742.81	0.081
743.26	0.081
743.70	0.079
744.14	0.080
744.58	0.078
745.02	0.078
745.46	0.079
745.90	0.076
746.34	0.076
746.78	0.080
747.22	0.079
747.66	0.078
748.10	0.080
748.54	0.078
748.98	0.078
749.42	0.080
749.86	0.078
750.29	0.080
750.73	0.078
751.17	0.078
751.61	0.081
752.05	0.078
752.49	0.077
752.93	0.077
753.37	0.081
753.81	0.077
754.25	0.078
754.69	0.078
755.13	0.079
755.57	0.076
756.01	0.076
756.45	0.076
756.89	0.077
757.33	0.077
757.77	0.078
758.21	0.079
758.64	0.075
759.08	0.077
759.52	0.076
759.96	0.078
760.40	0.076
760.84	0.074
761.28	0.075
761.72	0.078
762.16	0.078
762.60	0.076
763.03	0.077
763.47	0.076
763.91	0.078
764.35	0.075
764.79	0.078
765.23	0.079
765.67	0.075
766.11	0.077
766.54	0.077
766.98	0.074
767.42	0.078
767.86	0.078
768.30	0.075
768.74	0.075
769.17	0.077
769.61	0.074
770.05	0.076
770.49	0.079
770.93	0.074
771.37	0.079
771.80	0.074
772.24	0.074
772.68	0.074
773.12	0.072
773.56	0.075
774.00	0.076
774.43	0.077
774.87	0.075
775.31	0.076
775.75	0.075
776.19	0.073
776.62	0.075
777.06	0.073
777.50	0.075
777.94	0.075
778.37	0.078
778.81	0.075
779.25	0.071
779.69	0.073
780.13	0.073
780.56	0.072
781.00	0.076
781.44	0.074
781.88	0.076
782.31	0.072
782.75	0.071
783.19	0.075
783.63	0.074
784.06	0.074
784.50	0.075
784.94	0.076
785.37	0.071
785.81	0.075
786.25	0.074
786.69	0.074
787.12	0.076
787.56	0.077
788.00	0.074
788.43	0.074
788.87	0.077
789.31	0.074
789.75	0.071
790.18	0.075
790.62	0.075
791.06	0.075
791.49	0.076
791.93	0.073
792.37	0.072
792.80	0.073
793.24	0.073
793.68	0.077
794.11	0.076
794.55	0.073
794.99	0.074
795.42	0.075
795.86	0.077
796.30	0.075
796.73	0.072
797.17	0.072
797.61	0.073
798.04	0.076
798.48	0.071
798.91	0.075
799.35	0.073
799.79	0.071
800.22	0.075
800.66	0.072
801.10	0.075
801.53	0.080
801.97	0.075
802.40	0.072
802.84	0.072
803.28	0.073
803.71	0.073
804.15	0.078
804.58	0.077
805.02	0.076
805.46	0.072
805.89	0.073
806.33	0.075
806.76	0.073
807.20	0.075
807.63	0.075
808.07	0.073
808.51	0.074
808.94	0.073
809.38	0.075
809.81	0.075
810.25	0.072
810.68	0.075
811.12	0.073
811.55	0.076
811.99	0.072
812.42	0.072
812.86	0.072
813.29	0.074
813.73	0.074
814.17	0.068
814.60	0.071
815.04	0.072
815.47	0.071
815.91	0.071
816.34	0.070
816.78	0.075
817.21	0.078
817.65	0.072
818.08	0.070
818.52	0.069
818.95	0.076
819.39	0.075
819.82	0.074
820.25	0.073
820.69	0.071
821.12	0.074
821.56	0.074
821.99	0.078
822.43	0.073
822.86	0.074
823.30	0.074
823.73	0.075
824.17	0.075
824.60	0.071
825.04	0.074
825.47	0.074
825.90	0.071
826.34	0.075
826.77	0.075
827.21	0.076
827.64	0.074
828.08	0.081
828.51	0.073
828.94	0.078
829.38	0.078
829.81	0.080
830.25	0.079
830.68	0.076
831.11	0.077
831.55	0.076
831.98	0.080
832.42	0.079
832.85	0.082
833.28	0.079
833.72	0.081
834.15	0.085
834.58	0.078
835.02	0.082
835.45	0.079
835.88	0.080
836.32	0.083
836.75	0.077
837.19	0.083
837.62	0.080
838.05	0.083
838.49	0.084
838.92	0.080
839.35	0.079
839.79	0.082
840.22	0.081
840.65	0.081
841.09	0.080
841.52	0.082
841.95	0.084
842.39	0.082
842.82	0.080
843.25	0.080
843.68	0.078
844.12	0.077
844.55	0.082
844.98	0.083
845.42	0.075
845.85	0.080
846.28	0.081
846.71	0.080
847.15	0.079
847.58	0.082
848.01	0.079
848.45	0.078
848.88	0.079
849.31	0.078
849.74	0.081
850.18	0.078
850.61	0.088
851.04	0.083
851.47	0.075
851.91	0.081
852.34	0.079
852.77	0.079
853.20	0.086
853.64	0.084
854.07	0.082
854.50	0.086
854.93	0.079
855.36	0.086
855.80	0.079
856.23	0.085
856.66	0.086
857.09	0.086
857.52	0.082
857.96	0.084
858.39	0.085
858.82	0.085
859.25	0.085
859.68	0.082
860.12	0.085
860.55	0.081
860.98	0.085
861.41	0.084
861.84	0.083
862.27	0.084
862.71	0.086
863.14	0.084
863.57	0.086
864.00	0.084
864.43	0.078
864.86	0.088
865.30	0.083
865.73	0.084
866.16	0.084
866.59	0.089
867.02	0.080
867.45	0.081
867.88	0.087
868.31	0.085
868.75	0.084
869.18	0.081
869.61	0.089
870.04	0.086
870.47	0.088
870.90	0.091
871.33	0.086
871.76	0.084
872.19	0.084
872.62	0.090
873.06	0.085
873.49	0.091
873.92	0.086
874.35	0.088
874.78	0.095
875.21	0.085
875.64	0.093
876.07	0.092
876.50	0.087
876.93	0.084
877.36	0.090
877.79	0.090
878.22	0.082
878.65	0.090
879.08	0.097
879.51	0.089
879.94	0.085
880.37	0.095
880.80	0.091
881.23	0.091
881.67	0.092
882.10	0.093
882.53	0.095
882.96	0.095
883.39	0.092
883.82	0.094
884.25	0.093
884.68	0.090
885.11	0.095
885.54	0.095
885.97	0.091
886.39	0.087
886.82	0.086
887.25	0.096
887.68	0.091
888.11	0.090
888.54	0.091
888.97	0.094
889.40	0.089
889.83	0.095
890.26	0.096
890.69	0.089
891.12	0.088
891.55	0.093
891.98	0.093
892.41	0.093
892.84	0.097
893.27	0.094
893.70	0.093
894.13	0.091
894.56	0.091
894.98	0.098
895.41	0.096
895.84	0.101
896.27	0.090
896.70	0.096
897.13	0.091
897.56	0.095
897.99	0.091
898.42	0.097
898.85	0.097
899.27	0.097
899.70	0.098
900.13	0.095
900.56	0.098
900.99	0.096
901.42	0.093
901.85	0.098
902.28	0.102
902.70	0.098
903.13	0.097
903.56	0.105
903.99	0.097
904.42	0.098
904.85	0.098
905.27	0.101
905.70	0.098
906.13	0.095
906.56	0.099
906.99	0.096
907.42	0.097
907.84	0.096
908.27	0.099
908.70	0.096
909.13	0.098
909.56	0.095
909.98	0.099
910.41	0.101
910.84	0.095
911.27	0.094
911.70	0.095
912.12	0.095
912.55	0.099
912.98	0.094
913.41	0.094
913.84	0.094
914.26	0.093
914.69	0.092
915.12	0.099
915.55	0.090
915.97	0.094
916.40	0.098
916.83	0.095
917.26	0.094
917.68	0.098
918.11	0.100
918.54	0.098
918.97	0.094
919.39	0.100
919.82	0.101
920.25	0.102
920.67	0.097
921.10	0.098
921.53	0.099
921.96	0.098
922.38	0.100
922.81	0.100
923.24	0.102
923.66	0.101
924.09	0.101
924.52	0.103
924.94	0.102
925.37	0.106
925.80	0.102
926.22	0.108
926.65	0.108
927.08	0.104
927.50	0.107
927.93	0.111
928.36	0.108
928.78	0.109
929.21	0.111
929.64	0.109
930.06	0.111
930.49	0.114
930.92	0.111
931.34	0.114
931.77	0.111
932.20	0.117
932.62	0.110
933.05	0.110
933.47	0.113
933.90	0.117
934.33	0.118
934.75	0.120
935.18	0.118
935.61	0.121
936.03	0.123
936.46	0.124
936.88	0.124
937.31	0.132
937.73	0.131
938.16	0.132
938.59	0.130
939.01	0.137
939.44	0.138
939.86	0.139
940.29	0.136
940.71	0.143
941.14	0.143
941.57	0.143
941.99	0.149
942.42	0.148
942.84	0.149
943.27	0.145
943.69	0.157
944.12	0.154
944.54	0.162
944.97	0.151
945.39	0.163
945.82	0.172
946.24	0.158
946.67	0.171
947.09	0.169
947.52	0.176
947.94	0.171
948.37	0.171
948.79	0.172
949.22	0.177
949.64	0.183
950.07	0.180
950.49	0.197
950.92	0.185
951.34	0.190
951.77	0.200
952.19	0.189
952.62	0.199
953.04	0.207
953.47	0.206
953.89	0.209
954.32	0.206
954.74	0.213
955.17	0.216
955.59	0.217
956.01	0.228
956.44	0.222
956.86	0.214
957.29	0.227
957.71	0.237
958.14	0.228
958.56	0.236
958.98	0.242
959.41	0.238
959.83	0.242
960.26	0.244
960.68	0.250
961.10	0.253
961.53	0.245
961.95	0.250
962.38	0.252
962.80	0.248
963.22	0.255
963.65	0.254
964.07	0.253
964.50	0.253
964.92	0.255
965.34	0.255
965.77	0.255
966.19	0.252
966.61	0.256
967.04	0.258
967.46	0.258
967.88	0.255
968.31	0.261
968.73	0.259
969.15	0.263
969.58	0.265
970.00	0.262
970.42	0.269
970.85	0.254
971.27	0.261
971.69	0.264
972.12	0.256
972.54	0.254
972.96	0.262
973.39	0.258
973.81	0.264
974.23	0.263
974.65	0.268
975.08	0.267
975.50	0.264
975.92	0.262
976.35	0.263
976.77	0.260
977.19	0.263
977.61	0.264
978.04	0.261
978.46	0.257
978.88	0.265
979.30	0.264
979.73	0.261
980.15	0.263
980.57	0.265
980.99	0.267
981.42	0.256
981.84	0.268
982.26	0.265
982.68	0.265
983.11	0.268
983.53	0.266
983.95	0.264
984.37	0.258
984.79	0.261
985.22	0.261
985.64	0.269
986.06	0.252
986.48	0.263
986.90	0.256
987.33	0.259
987.75	0.257
988.17	0.260
988.59	0.266
989.01	0.247
989.43	0.252
989.86	0.256
990.28	0.253
990.70	0.251
991.12	0.258
991.54	0.260
991.96	0.255
992.39	0.248
992.81	0.256
993.23	0.251
993.65	0.247
994.07	0.243
994.49	0.250
994.91	0.250
995.34	0.243
995.76	0.251
996.18	0.257
996.60	0.240
997.02	0.240
997.44	0.244
997.86	0.244
998.28	0.239
998.70	0.245
999.12	0.241
999.55	0.243
999.97	0.239
1000.39	0.238
1000.81	0.234
1001.23	0.230
1001.65	0.235
1002.07	0.239
1002.49	0.233
1002.91	0.232
1003.33	0.233
1003.75	0.239
1004.17	0.233
1004.59	0.234
1005.01	0.230
1005.43	0.221
1005.85	0.223
1006.28	0.232
1006.70	0.230
1007.12	0.225
1007.54	0.228
1007.96	0.223
1008.38	0.222
1008.80	0.228
1009.22	0.221
1009.64	0.228
1010.06	0.231
1010.48	0.218
1010.90	0.226
1011.32	0.228
1011.74	0.207
1012.16	0.216
1012.58	0.224
1013.00	0.207
1013.42	0.211
1013.84	0.210
1014.26	0.210
1014.67	0.211
1015.09	0.214
1015.51	0.213
1015.93	0.220
1016.35	0.186
1016.77	0.212
1017.19	0.211
1017.61	0.193
1018.03	0.196
1018.45	0.196
1018.87	0.201
1019.29	0.190
1019.71	0.186
1020.13	0.196
1020.55	0.207
1020.97	0.182
1021.38	0.191
1021.80	0.202
1022.22	0.189
1022.64	0.189
1023.06	0.205
1023.48	0.189
1023.90	0.188
1024.32	0.185
1024.74	0.180
1025.15	0.192
1025.57	0.187
1025.99	0.191
1026.41	0.204
1026.83	0.193
1027.25	0.180
1027.67	0.191
1028.08	0.188
1028.50	0.186
1028.92	0.185
1029.34	0.189
1029.76	0.193
1030.18	0.168
1030.60	0.172
1031.01	0.181
1031.43	0.171
1031.85	0.174
1032.27	0.184
1032.69	0.153
1033.10	0.166
1033.52	0.166
1033.94	0.173
1034.36	0.179
1034.78	0.174
1035.19	0.168
1035.61	0.171
1036.03	0.145
1036.45	0.174
1036.87	0.189
1037.28	0.156
1037.70	0.151
1038.12	0.154
1038.54	0.166
1038.95	0.160
1039.37	0.153
1039.79	0.164
1040.21	0.159
1040.62	0.129
1041.04	0.171
1041.46	0.174
1041.88	0.150
1042.29	0.153
1042.71	0.181
1043.13	0.143
1043.55	0.159
1043.96	0.171
1044.38	0.158
1044.80	0.173
1045.21	0.143
1045.63	0.152
1046.05	0.153
1046.47	0.152
1046.88	0.146
1047.30	0.167
1047.72	0.146
1048.13	0.123
1048.55	0.178
1048.97	0.160
1049.38	0.142
1049.80	0.119
1050.22	0.148
1050.63	0.151
1051.05	0.127
1051.47	0.165
1051.88	0.156
1052.30	0.146
1052.72	0.126
1053.13	0.146
1053.55	0.143
1053.97	0.140
1054.38	0.128
1054.80	0.160
1055.21	0.167
1055.63	0.118
1056.05	0.149
1056.46	0.178
1056.88	0.145
1057.29	0.138
1057.71	0.192
1058.13	0.145
1058.54	0.144
1058.96	0.171
1059.37	0.177
1059.79	0.172
1060.21	0.158
1060.62	0.167
1061.04	0.207
1061.45	0.140
1061.87	0.171
1062.28	0.209
1062.70	0.198
1063.12	0.200
1063.53	0.177
1063.95	0.180
1064.36	0.163
1064.78	0.161
1065.19	0.175
1065.61	0.275
1066.02	0.089
1066.44	0.172
1066.85	0.224
1067.27	0.149
1067.68	0.174
1068.10	0.195
1068.51	0.198
1068.93	0.199
1069.35	0.154
1069.76	0.275
1070.17	0.263
1070.59	0.153
1071.00	0.307
1071.42	0.280
1071.83	0.227
1072.25	0.267
1072.66	0.297
1073.08	0.288
1073.49	0.309
1073.91	0.226
1074.32	0.382
1074.74	0.566
1075.15	0.121
1075.57	0.310
1075.98	0.383
1076.40	0.210
1076.81	0.196
1077.22	0.578
1077.64	0.450
1078.05	0.405
1078.47	0.338
1078.88	0.313
1079.30	0.437
1079.71	0.268
1080.12	0.476
1080.54	0.648
1080.95	0.362
1081.37	0.419
1081.78	-0.000
1082.19	0.519
1082.61	0.708
1083.02	-0.000
1083.44	-0.000
1083.85	0.454
1084.26	0.306
1084.68	-0.000
1085.09	-0.000
1085.50	0.335
1085.92	0.665
1086.33	-0.000
1086.74	0.982
1087.16	0.480
1087.57	-0.000
1087.98	-0.000
1088.40	0.744
1088.81	1.031
1089.22	0.890
1089.64	1.186
1090.05	0.332
1090.46	0.605
1090.88	-0.000
1091.29	1.465
1091.70	-0.000
1092.12	-0.000
1092.53	-0.000
1092.94	0.584
1093.36	1.512
1093.77	-0.000
1094.18	0.941
1094.59	-0.000
1095.01	-0.000
1095.42	-0.000
1095.83	-0.000
1096.25	0.959
1096.66	-0.000
1097.07	-0.000
1097.48	0.450
1097.90	-0.000
1098.31	-0.000
1098.72	-0.000
1099.13	0.620
>>>>>End Processed Spectral Data<<<<<
