SpectraSuite Data File
++++++++++++++++++++++++++++++++++++
Date: Wed May 04 14:50:26 CEST 2016
User: spectrasuite
Dark Spectrum Present: Yes
Reference Spectrum Present: Yes
Number of Sampled Component Spectra: 1
Spectrometers: HR+C0708
Integration Time (usec): 1000 (HR+C0708)
Spectra Averaged: 10 (HR+C0708)
Boxcar Smoothing: 0 (HR+C0708)
Correct for Electrical Dark: No (HR+C0708)
Strobe/Lamp Enabled: No (HR+C0708)
Correct for Detector Non-linearity: No (HR+C0708)
Correct for Stray Light: No (HR+C0708)
Number of Pixels in Processed Spectrum: 2048
>>>>>Begin Processed Spectral Data<<<<<
188.76	-0.000
189.23	-0.000
189.70	-0.000
190.17	-0.000
190.64	-0.000
191.12	-0.000
191.59	-0.000
192.06	-0.000
192.53	-0.000
193.01	-0.000
193.48	-0.000
193.95	-0.000
194.42	-0.000
194.90	-0.000
195.37	-0.000
195.84	-0.000
196.31	-0.000
196.78	-0.000
197.26	-0.000
197.73	-0.000
198.20	-0.000
198.67	-0.000
199.14	-0.000
199.62	-0.000
200.09	-0.000
200.56	-0.000
201.03	1.327
201.50	0.834
201.97	0.970
202.45	0.876
202.92	-0.000
203.39	1.781
203.86	1.672
204.33	1.288
204.80	-0.000
205.28	0.794
205.75	0.711
206.22	1.054
206.69	1.040
207.16	0.968
207.63	1.335
208.11	0.786
208.58	0.706
209.05	0.883
209.52	1.206
209.99	0.871
210.46	0.778
210.93	1.295
211.41	-0.000
211.88	0.986
212.35	0.658
212.82	-0.000
213.29	1.053
213.76	1.008
214.23	1.209
214.70	-0.000
215.18	0.917
215.65	0.596
216.12	0.548
216.59	1.013
217.06	0.571
217.53	0.767
218.00	0.817
218.47	0.881
218.94	1.278
219.41	0.771
219.89	0.977
220.36	0.622
220.83	0.759
221.30	-0.000
221.77	1.349
222.24	0.688
222.71	1.199
223.18	0.912
223.65	0.685
224.12	0.841
224.59	1.075
225.06	1.185
225.54	0.779
226.01	0.855
226.48	1.230
226.95	1.823
227.42	1.045
227.89	1.715
228.36	2.466
228.83	1.268
229.30	1.307
229.77	1.781
230.24	1.327
230.71	1.367
231.18	1.333
231.65	-0.000
232.12	2.499
232.59	1.766
233.06	2.028
233.53	2.446
234.00	1.826
234.47	1.997
234.94	2.533
235.41	2.161
235.88	2.109
236.35	2.021
236.82	2.417
237.29	2.032
237.76	2.056
238.23	2.926
238.70	2.558
239.17	2.292
239.64	2.569
240.11	2.485
240.58	2.238
241.05	2.373
241.52	2.414
241.99	2.325
242.46	2.375
242.93	2.206
243.40	-0.000
243.87	2.962
244.34	2.257
244.81	2.596
245.28	2.647
245.75	2.545
246.22	2.467
246.69	3.383
247.16	2.672
247.63	2.408
248.10	2.465
248.57	-0.000
249.04	2.737
249.51	2.385
249.98	3.291
250.45	3.094
250.92	2.524
251.39	2.282
251.85	2.305
252.32	2.168
252.79	1.954
253.26	1.849
253.73	1.813
254.20	1.668
254.67	1.583
255.14	1.531
255.61	1.449
256.08	1.376
256.55	1.320
257.02	1.283
257.49	1.232
257.95	1.186
258.42	1.152
258.89	1.119
259.36	1.083
259.83	1.052
260.30	1.034
260.77	1.002
261.24	0.987
261.71	0.961
262.17	0.941
262.64	0.924
263.11	0.904
263.58	0.890
264.05	0.876
264.52	0.860
264.99	0.846
265.46	0.836
265.92	0.822
266.39	0.809
266.86	0.800
267.33	0.788
267.80	0.779
268.27	0.767
268.74	0.757
269.20	0.751
269.67	0.739
270.14	0.734
270.61	0.729
271.08	0.716
271.55	0.706
272.01	0.708
272.48	0.696
272.95	0.690
273.42	0.682
273.89	0.678
274.36	0.673
274.82	0.662
275.29	0.662
275.76	0.661
276.23	0.656
276.70	0.644
277.16	0.646
277.63	0.647
278.10	0.640
278.57	0.635
279.04	0.635
279.50	0.630
279.97	0.624
280.44	0.623
280.91	0.626
281.38	0.621
281.84	0.615
282.31	0.621
282.78	0.615
283.25	0.615
283.72	0.617
284.18	0.619
284.65	0.614
285.12	0.612
285.59	0.614
286.05	0.612
286.52	0.611
286.99	0.615
287.46	0.617
287.92	0.613
288.39	0.614
288.86	0.612
289.33	0.612
289.79	0.613
290.26	0.611
290.73	0.611
291.20	0.606
291.66	0.608
292.13	0.604
292.60	0.600
293.07	0.596
293.53	0.588
294.00	0.590
294.47	0.581
294.93	0.577
295.40	0.570
295.87	0.565
296.34	0.559
296.80	0.547
297.27	0.540
297.74	0.535
298.20	0.527
298.67	0.519
299.14	0.509
299.60	0.504
300.07	0.493
300.54	0.490
301.01	0.481
301.47	0.469
301.94	0.462
302.41	0.455
302.87	0.448
303.34	0.437
303.81	0.431
304.27	0.430
304.74	0.419
305.21	0.408
305.67	0.402
306.14	0.397
306.61	0.393
307.07	0.386
307.54	0.384
308.01	0.377
308.47	0.370
308.94	0.364
309.40	0.364
309.87	0.355
310.34	0.357
310.80	0.352
311.27	0.346
311.74	0.342
312.20	0.342
312.67	0.340
313.13	0.334
313.60	0.329
314.07	0.330
314.53	0.327
315.00	0.322
315.47	0.322
315.93	0.325
316.40	0.316
316.86	0.314
317.33	0.314
317.80	0.312
318.26	0.311
318.73	0.309
319.19	0.309
319.66	0.306
320.13	0.303
320.59	0.305
321.06	0.305
321.52	0.300
321.99	0.303
322.45	0.300
322.92	0.297
323.39	0.296
323.85	0.294
324.32	0.297
324.78	0.291
325.25	0.286
325.71	0.290
326.18	0.290
326.64	0.285
327.11	0.282
327.58	0.285
328.04	0.282
328.51	0.281
328.97	0.280
329.44	0.278
329.90	0.275
330.37	0.272
330.83	0.272
331.30	0.273
331.76	0.269
332.23	0.268
332.69	0.266
333.16	0.263
333.62	0.261
334.09	0.259
334.56	0.261
335.02	0.255
335.49	0.253
335.95	0.251
336.42	0.249
336.88	0.244
337.35	0.245
337.81	0.243
338.28	0.244
338.74	0.241
339.20	0.243
339.67	0.241
340.13	0.243
340.60	0.239
341.06	0.236
341.53	0.234
341.99	0.233
342.46	0.229
342.92	0.229
343.39	0.227
343.85	0.227
344.32	0.226
344.78	0.227
345.25	0.228
345.71	0.227
346.17	0.229
346.64	0.229
347.10	0.222
347.57	0.221
348.03	0.219
348.50	0.216
348.96	0.219
349.43	0.220
349.89	0.219
350.35	0.218
350.82	0.219
351.28	0.220
351.75	0.213
352.21	0.220
352.67	0.215
353.14	0.216
353.60	0.210
354.07	0.210
354.53	0.209
355.00	0.210
355.46	0.207
355.92	0.204
356.39	0.203
356.85	0.202
357.31	0.196
357.78	0.196
358.24	0.199
358.71	0.201
359.17	0.196
359.63	0.198
360.10	0.193
360.56	0.193
361.03	0.193
361.49	0.192
361.95	0.189
362.42	0.190
362.88	0.189
363.34	0.190
363.81	0.188
364.27	0.186
364.73	0.186
365.20	0.185
365.66	0.185
366.12	0.186
366.59	0.182
367.05	0.181
367.51	0.182
367.98	0.180
368.44	0.181
368.90	0.181
369.37	0.181
369.83	0.181
370.29	0.177
370.76	0.178
371.22	0.178
371.68	0.178
372.15	0.176
372.61	0.173
373.07	0.176
373.54	0.177
374.00	0.175
374.46	0.174
374.92	0.176
375.39	0.176
375.85	0.173
376.31	0.173
376.78	0.172
377.24	0.171
377.70	0.173
378.16	0.171
378.63	0.173
379.09	0.174
379.55	0.172
380.01	0.174
380.48	0.172
380.94	0.172
381.40	0.172
381.87	0.172
382.33	0.170
382.79	0.167
383.25	0.170
383.72	0.168
384.18	0.168
384.64	0.170
385.10	0.169
385.56	0.165
386.03	0.169
386.49	0.167
386.95	0.164
387.41	0.168
387.88	0.165
388.34	0.165
388.80	0.165
389.26	0.168
389.72	0.165
390.19	0.165
390.65	0.164
391.11	0.162
391.57	0.166
392.04	0.162
392.50	0.163
392.96	0.162
393.42	0.163
393.88	0.166
394.34	0.163
394.81	0.163
395.27	0.162
395.73	0.161
396.19	0.161
396.65	0.161
397.12	0.159
397.58	0.162
398.04	0.161
398.50	0.162
398.96	0.160
399.42	0.162
399.89	0.162
400.35	0.161
400.81	0.158
401.27	0.161
401.73	0.161
402.19	0.160
402.65	0.156
403.12	0.158
403.58	0.157
404.04	0.155
404.50	0.156
404.96	0.153
405.42	0.154
405.88	0.154
406.34	0.158
406.81	0.156
407.27	0.152
407.73	0.150
408.19	0.154
408.65	0.149
409.11	0.149
409.57	0.152
410.03	0.155
410.49	0.151
410.96	0.151
411.42	0.150
411.88	0.147
412.34	0.146
412.80	0.150
413.26	0.151
413.72	0.149
414.18	0.148
414.64	0.151
415.10	0.147
415.56	0.149
416.02	0.148
416.48	0.146
416.95	0.148
417.41	0.146
417.87	0.148
418.33	0.146
418.79	0.144
419.25	0.146
419.71	0.148
420.17	0.143
420.63	0.140
421.09	0.142
421.55	0.144
422.01	0.146
422.47	0.148
422.93	0.146
423.39	0.146
423.85	0.145
424.31	0.144
424.77	0.145
425.23	0.145
425.69	0.143
426.15	0.147
426.61	0.148
427.07	0.141
427.53	0.143
427.99	0.142
428.45	0.145
428.91	0.143
429.37	0.143
429.83	0.141
430.29	0.142
430.75	0.144
431.21	0.144
431.67	0.145
432.13	0.143
432.59	0.140
433.05	0.140
433.51	0.139
433.97	0.137
434.43	0.143
434.89	0.146
435.35	0.140
435.81	0.141
436.27	0.142
436.73	0.141
437.19	0.144
437.65	0.140
438.11	0.140
438.57	0.139
439.03	0.141
439.48	0.142
439.94	0.141
440.40	0.140
440.86	0.139
441.32	0.143
441.78	0.136
442.24	0.141
442.70	0.144
443.16	0.141
443.62	0.138
444.08	0.138
444.54	0.138
444.99	0.140
445.45	0.135
445.91	0.136
446.37	0.138
446.83	0.138
447.29	0.138
447.75	0.139
448.21	0.141
448.67	0.137
449.12	0.137
449.58	0.138
450.04	0.139
450.50	0.140
450.96	0.135
451.42	0.137
451.88	0.139
452.34	0.135
452.79	0.136
453.25	0.138
453.71	0.138
454.17	0.136
454.63	0.138
455.09	0.135
455.55	0.135
456.00	0.134
456.46	0.139
456.92	0.135
457.38	0.136
457.84	0.134
458.30	0.136
458.75	0.134
459.21	0.136
459.67	0.134
460.13	0.135
460.59	0.136
461.04	0.136
461.50	0.135
461.96	0.136
462.42	0.134
462.88	0.134
463.33	0.135
463.79	0.135
464.25	0.134
464.71	0.137
465.17	0.136
465.62	0.135
466.08	0.135
466.54	0.138
467.00	0.136
467.46	0.136
467.91	0.136
468.37	0.137
468.83	0.136
469.29	0.135
469.74	0.137
470.20	0.137
470.66	0.136
471.12	0.136
471.57	0.136
472.03	0.136
472.49	0.137
472.95	0.137
473.40	0.138
473.86	0.137
474.32	0.137
474.78	0.134
475.23	0.136
475.69	0.135
476.15	0.137
476.60	0.136
477.06	0.137
477.52	0.136
477.98	0.138
478.43	0.137
478.89	0.136
479.35	0.138
479.80	0.135
480.26	0.133
480.72	0.136
481.18	0.135
481.63	0.135
482.09	0.134
482.55	0.133
483.00	0.132
483.46	0.136
483.92	0.133
484.37	0.135
484.83	0.132
485.29	0.134
485.74	0.134
486.20	0.133
486.66	0.135
487.11	0.135
487.57	0.134
488.03	0.135
488.48	0.136
488.94	0.134
489.40	0.134
489.85	0.135
490.31	0.134
490.77	0.134
491.22	0.135
491.68	0.133
492.13	0.135
492.59	0.136
493.05	0.135
493.50	0.134
493.96	0.133
494.42	0.137
494.87	0.135
495.33	0.134
495.78	0.132
496.24	0.134
496.70	0.135
497.15	0.134
497.61	0.135
498.06	0.132
498.52	0.132
498.98	0.132
499.43	0.134
499.89	0.135
500.34	0.132
500.80	0.135
501.25	0.130
501.71	0.131
502.17	0.133
502.62	0.133
503.08	0.131
503.53	0.131
503.99	0.131
504.44	0.132
504.90	0.131
505.36	0.133
505.81	0.133
506.27	0.129
506.72	0.132
507.18	0.130
507.63	0.131
508.09	0.130
508.54	0.131
509.00	0.133
509.45	0.130
509.91	0.132
510.36	0.132
510.82	0.132
511.27	0.131
511.73	0.132
512.19	0.131
512.64	0.130
513.10	0.131
513.55	0.130
514.01	0.131
514.46	0.131
514.92	0.133
515.37	0.130
515.83	0.130
516.28	0.130
516.73	0.130
517.19	0.130
517.64	0.131
518.10	0.131
518.55	0.130
519.01	0.128
519.46	0.130
519.92	0.130
520.37	0.127
520.83	0.129
521.28	0.128
521.74	0.129
522.19	0.130
522.65	0.129
523.10	0.130
523.55	0.129
524.01	0.128
524.46	0.128
524.92	0.129
525.37	0.130
525.83	0.128
526.28	0.130
526.73	0.131
527.19	0.129
527.64	0.130
528.10	0.130
528.55	0.129
529.01	0.132
529.46	0.130
529.91	0.129
530.37	0.128
530.82	0.130
531.28	0.129
531.73	0.129
532.18	0.130
532.64	0.130
533.09	0.130
533.54	0.131
534.00	0.133
534.45	0.133
534.91	0.129
535.36	0.129
535.81	0.128
536.27	0.132
536.72	0.130
537.17	0.130
537.63	0.131
538.08	0.133
538.54	0.131
538.99	0.131
539.44	0.130
539.90	0.132
540.35	0.131
540.80	0.130
541.26	0.131
541.71	0.136
542.16	0.134
542.62	0.136
543.07	0.134
543.52	0.133
543.98	0.134
544.43	0.135
544.88	0.134
545.34	0.135
545.79	0.136
546.24	0.135
546.69	0.134
547.15	0.137
547.60	0.136
548.05	0.138
548.51	0.138
548.96	0.137
549.41	0.139
549.86	0.139
550.32	0.139
550.77	0.139
551.22	0.140
551.68	0.140
552.13	0.141
552.58	0.140
553.03	0.140
553.49	0.140
553.94	0.141
554.39	0.143
554.84	0.145
555.30	0.142
555.75	0.143
556.20	0.144
556.65	0.144
557.11	0.146
557.56	0.147
558.01	0.148
558.46	0.145
558.92	0.147
559.37	0.148
559.82	0.148
560.27	0.149
560.72	0.148
561.18	0.150
561.63	0.151
562.08	0.149
562.53	0.150
562.99	0.149
563.44	0.152
563.89	0.153
564.34	0.155
564.79	0.155
565.25	0.155
565.70	0.156
566.15	0.156
566.60	0.157
567.05	0.157
567.50	0.160
567.96	0.158
568.41	0.160
568.86	0.160
569.31	0.160
569.76	0.161
570.21	0.162
570.67	0.161
571.12	0.164
571.57	0.165
572.02	0.166
572.47	0.167
572.92	0.166
573.37	0.169
573.83	0.169
574.28	0.168
574.73	0.167
575.18	0.170
575.63	0.171
576.08	0.172
576.53	0.172
576.98	0.175
577.44	0.176
577.89	0.174
578.34	0.177
578.79	0.179
579.24	0.177
579.69	0.179
580.14	0.181
580.59	0.182
581.04	0.183
581.49	0.186
581.95	0.185
582.40	0.187
582.85	0.189
583.30	0.190
583.75	0.192
584.20	0.191
584.65	0.193
585.10	0.198
585.55	0.198
586.00	0.197
586.45	0.200
586.90	0.203
587.35	0.202
587.80	0.204
588.25	0.205
588.71	0.207
589.16	0.212
589.61	0.211
590.06	0.213
590.51	0.214
590.96	0.217
591.41	0.221
591.86	0.220
592.31	0.222
592.76	0.225
593.21	0.224
593.66	0.231
594.11	0.229
594.56	0.231
595.01	0.232
595.46	0.235
595.91	0.239
596.36	0.238
596.81	0.241
597.26	0.241
597.71	0.245
598.16	0.248
598.61	0.250
599.06	0.250
599.51	0.253
599.96	0.255
600.41	0.257
600.86	0.261
601.31	0.260
601.76	0.264
602.21	0.266
602.65	0.269
603.10	0.269
603.55	0.270
604.00	0.274
604.45	0.273
604.90	0.276
605.35	0.279
605.80	0.280
606.25	0.281
606.70	0.283
607.15	0.283
607.60	0.285
608.05	0.287
608.50	0.289
608.95	0.290
609.39	0.291
609.84	0.292
610.29	0.297
610.74	0.297
611.19	0.297
611.64	0.298
612.09	0.297
612.54	0.301
612.99	0.300
613.44	0.300
613.88	0.303
614.33	0.302
614.78	0.308
615.23	0.304
615.68	0.306
616.13	0.306
616.58	0.304
617.03	0.309
617.47	0.308
617.92	0.311
618.37	0.311
618.82	0.313
619.27	0.311
619.72	0.313
620.17	0.313
620.61	0.314
621.06	0.314
621.51	0.313
621.96	0.316
622.41	0.313
622.86	0.317
623.30	0.316
623.75	0.317
624.20	0.318
624.65	0.319
625.10	0.319
625.54	0.320
625.99	0.320
626.44	0.324
626.89	0.321
627.34	0.324
627.78	0.328
628.23	0.327
628.68	0.328
629.13	0.328
629.58	0.328
630.02	0.332
630.47	0.334
630.92	0.333
631.37	0.338
631.81	0.339
632.26	0.340
632.71	0.340
633.16	0.344
633.61	0.346
634.05	0.345
634.50	0.347
634.95	0.352
635.40	0.353
635.84	0.356
636.29	0.359
636.74	0.360
637.18	0.363
637.63	0.365
638.08	0.366
638.53	0.367
638.97	0.372
639.42	0.374
639.87	0.377
640.32	0.382
640.76	0.382
641.21	0.388
641.66	0.389
642.10	0.392
642.55	0.395
643.00	0.398
643.44	0.400
643.89	0.404
644.34	0.408
644.79	0.412
645.23	0.413
645.68	0.415
646.13	0.419
646.57	0.422
647.02	0.428
647.47	0.429
647.91	0.430
648.36	0.436
648.81	0.438
649.25	0.441
649.70	0.446
650.15	0.449
650.59	0.451
651.04	0.456
651.48	0.456
651.93	0.458
652.38	0.464
652.82	0.469
653.27	0.468
653.72	0.469
654.16	0.474
654.61	0.475
655.06	0.478
655.50	0.481
655.95	0.479
656.39	0.483
656.84	0.489
657.29	0.493
657.73	0.493
658.18	0.492
658.62	0.496
659.07	0.502
659.52	0.501
659.96	0.501
660.41	0.504
660.85	0.507
661.30	0.506
661.74	0.510
662.19	0.512
662.64	0.511
663.08	0.511
663.53	0.512
663.97	0.514
664.42	0.510
664.86	0.512
665.31	0.512
665.75	0.513
666.20	0.508
666.65	0.511
667.09	0.509
667.54	0.506
667.98	0.505
668.43	0.506
668.87	0.504
669.32	0.498
669.76	0.496
670.21	0.494
670.65	0.487
671.10	0.484
671.54	0.482
671.99	0.477
672.43	0.469
672.88	0.467
673.32	0.465
673.77	0.455
674.21	0.451
674.66	0.444
675.10	0.438
675.55	0.428
675.99	0.421
676.44	0.415
676.88	0.408
677.33	0.402
677.77	0.391
678.22	0.385
678.66	0.377
679.11	0.370
679.55	0.360
679.99	0.351
680.44	0.346
680.88	0.334
681.33	0.328
681.77	0.321
682.22	0.311
682.66	0.304
683.11	0.295
683.55	0.289
683.99	0.280
684.44	0.275
684.88	0.269
685.33	0.257
685.77	0.252
686.21	0.246
686.66	0.238
687.10	0.230
687.55	0.226
687.99	0.219
688.44	0.215
688.88	0.206
689.32	0.203
689.77	0.195
690.21	0.192
690.65	0.185
691.10	0.183
691.54	0.179
691.99	0.172
692.43	0.169
692.87	0.165
693.32	0.162
693.76	0.157
694.20	0.154
694.65	0.152
695.09	0.146
695.53	0.144
695.98	0.141
696.42	0.138
696.86	0.137
697.31	0.135
697.75	0.129
698.19	0.130
698.64	0.126
699.08	0.124
699.52	0.123
699.97	0.121
700.41	0.120
700.85	0.118
701.30	0.113
701.74	0.115
702.18	0.112
702.63	0.112
703.07	0.108
703.51	0.109
703.96	0.108
704.40	0.106
704.84	0.104
705.28	0.103
705.73	0.106
706.17	0.103
706.61	0.104
707.06	0.100
707.50	0.099
707.94	0.099
708.38	0.098
708.83	0.099
709.27	0.098
709.71	0.096
710.15	0.095
710.60	0.098
711.04	0.092
711.48	0.095
711.92	0.094
712.37	0.093
712.81	0.093
713.25	0.094
713.69	0.092
714.13	0.091
714.58	0.093
715.02	0.089
715.46	0.091
715.90	0.091
716.35	0.090
716.79	0.093
717.23	0.092
717.67	0.094
718.11	0.089
718.56	0.092
719.00	0.091
719.44	0.089
719.88	0.092
720.32	0.092
720.76	0.087
721.21	0.090
721.65	0.090
722.09	0.088
722.53	0.090
722.97	0.089
723.41	0.088
723.86	0.090
724.30	0.089
724.74	0.091
725.18	0.087
725.62	0.089
726.06	0.092
726.50	0.091
726.95	0.091
727.39	0.092
727.83	0.089
728.27	0.092
728.71	0.090
729.15	0.089
729.59	0.088
730.03	0.091
730.48	0.089
730.92	0.092
731.36	0.088
731.80	0.090
732.24	0.094
732.68	0.089
733.12	0.091
733.56	0.090
734.00	0.091
734.44	0.090
734.89	0.092
735.33	0.090
735.77	0.093
736.21	0.092
736.65	0.091
737.09	0.093
737.53	0.091
737.97	0.093
738.41	0.091
738.85	0.091
739.29	0.092
739.73	0.093
740.17	0.089
740.61	0.091
741.05	0.093
741.49	0.092
741.93	0.091
742.37	0.091
742.81	0.091
743.26	0.091
743.70	0.091
744.14	0.092
744.58	0.090
745.02	0.090
745.46	0.092
745.90	0.088
746.34	0.089
746.78	0.094
747.22	0.092
747.66	0.089
748.10	0.092
748.54	0.093
748.98	0.092
749.42	0.093
749.86	0.091
750.29	0.092
750.73	0.093
751.17	0.091
751.61	0.093
752.05	0.090
752.49	0.089
752.93	0.091
753.37	0.092
753.81	0.091
754.25	0.093
754.69	0.090
755.13	0.092
755.57	0.089
756.01	0.089
756.45	0.089
756.89	0.088
757.33	0.090
757.77	0.091
758.21	0.090
758.64	0.088
759.08	0.090
759.52	0.088
759.96	0.090
760.40	0.089
760.84	0.089
761.28	0.089
761.72	0.089
762.16	0.086
762.60	0.090
763.03	0.091
763.47	0.088
763.91	0.090
764.35	0.088
764.79	0.089
765.23	0.088
765.67	0.087
766.11	0.091
766.54	0.089
766.98	0.087
767.42	0.089
767.86	0.090
768.30	0.087
768.74	0.088
769.17	0.089
769.61	0.087
770.05	0.089
770.49	0.092
770.93	0.088
771.37	0.089
771.80	0.086
772.24	0.084
772.68	0.087
773.12	0.086
773.56	0.086
774.00	0.089
774.43	0.087
774.87	0.085
775.31	0.088
775.75	0.085
776.19	0.086
776.62	0.089
777.06	0.088
777.50	0.085
777.94	0.086
778.37	0.088
778.81	0.089
779.25	0.087
779.69	0.087
780.13	0.087
780.56	0.084
781.00	0.088
781.44	0.087
781.88	0.089
782.31	0.086
782.75	0.084
783.19	0.085
783.63	0.086
784.06	0.089
784.50	0.087
784.94	0.088
785.37	0.085
785.81	0.085
786.25	0.088
786.69	0.088
787.12	0.084
787.56	0.087
788.00	0.088
788.43	0.088
788.87	0.090
789.31	0.090
789.75	0.085
790.18	0.086
790.62	0.086
791.06	0.086
791.49	0.089
791.93	0.086
792.37	0.083
792.80	0.087
793.24	0.085
793.68	0.087
794.11	0.089
794.55	0.086
794.99	0.087
795.42	0.090
795.86	0.092
796.30	0.088
796.73	0.085
797.17	0.086
797.61	0.086
798.04	0.086
798.48	0.085
798.91	0.089
799.35	0.088
799.79	0.086
800.22	0.088
800.66	0.086
801.10	0.087
801.53	0.089
801.97	0.088
802.40	0.084
802.84	0.088
803.28	0.087
803.71	0.086
804.15	0.088
804.58	0.089
805.02	0.087
805.46	0.084
805.89	0.086
806.33	0.088
806.76	0.085
807.20	0.087
807.63	0.089
808.07	0.087
808.51	0.088
808.94	0.091
809.38	0.086
809.81	0.091
810.25	0.084
810.68	0.085
811.12	0.086
811.55	0.089
811.99	0.085
812.42	0.084
812.86	0.088
813.29	0.086
813.73	0.085
814.17	0.081
814.60	0.085
815.04	0.083
815.47	0.085
815.91	0.080
816.34	0.086
816.78	0.085
817.21	0.086
817.65	0.086
818.08	0.088
818.52	0.084
818.95	0.086
819.39	0.088
819.82	0.089
820.25	0.082
820.69	0.088
821.12	0.089
821.56	0.085
821.99	0.086
822.43	0.085
822.86	0.089
823.30	0.086
823.73	0.087
824.17	0.088
824.60	0.088
825.04	0.085
825.47	0.087
825.90	0.084
826.34	0.085
826.77	0.087
827.21	0.091
827.64	0.088
828.08	0.090
828.51	0.085
828.94	0.088
829.38	0.088
829.81	0.087
830.25	0.097
830.68	0.090
831.11	0.091
831.55	0.095
831.98	0.095
832.42	0.093
832.85	0.093
833.28	0.095
833.72	0.098
834.15	0.096
834.58	0.089
835.02	0.096
835.45	0.095
835.88	0.097
836.32	0.096
836.75	0.091
837.19	0.096
837.62	0.093
838.05	0.094
838.49	0.094
838.92	0.089
839.35	0.097
839.79	0.092
840.22	0.090
840.65	0.095
841.09	0.094
841.52	0.096
841.95	0.094
842.39	0.094
842.82	0.097
843.25	0.095
843.68	0.091
844.12	0.101
844.55	0.097
844.98	0.093
845.42	0.095
845.85	0.094
846.28	0.095
846.71	0.089
847.15	0.097
847.58	0.098
848.01	0.092
848.45	0.092
848.88	0.096
849.31	0.096
849.74	0.094
850.18	0.091
850.61	0.100
851.04	0.092
851.47	0.090
851.91	0.094
852.34	0.097
852.77	0.094
853.20	0.101
853.64	0.101
854.07	0.093
854.50	0.093
854.93	0.092
855.36	0.093
855.80	0.093
856.23	0.098
856.66	0.100
857.09	0.094
857.52	0.095
857.96	0.095
858.39	0.101
858.82	0.097
859.25	0.099
859.68	0.097
860.12	0.093
860.55	0.092
860.98	0.101
861.41	0.102
861.84	0.098
862.27	0.100
862.71	0.105
863.14	0.097
863.57	0.102
864.00	0.101
864.43	0.096
864.86	0.099
865.30	0.098
865.73	0.099
866.16	0.096
866.59	0.099
867.02	0.098
867.45	0.096
867.88	0.103
868.31	0.101
868.75	0.101
869.18	0.094
869.61	0.100
870.04	0.100
870.47	0.105
870.90	0.103
871.33	0.104
871.76	0.102
872.19	0.097
872.62	0.101
873.06	0.105
873.49	0.101
873.92	0.104
874.35	0.104
874.78	0.109
875.21	0.096
875.64	0.105
876.07	0.107
876.50	0.102
876.93	0.097
877.36	0.106
877.79	0.100
878.22	0.099
878.65	0.100
879.08	0.108
879.51	0.099
879.94	0.102
880.37	0.102
880.80	0.103
881.23	0.102
881.67	0.104
882.10	0.101
882.53	0.103
882.96	0.106
883.39	0.109
883.82	0.104
884.25	0.104
884.68	0.105
885.11	0.103
885.54	0.109
885.97	0.101
886.39	0.101
886.82	0.102
887.25	0.106
887.68	0.104
888.11	0.102
888.54	0.102
888.97	0.106
889.40	0.105
889.83	0.112
890.26	0.109
890.69	0.102
891.12	0.100
891.55	0.106
891.98	0.108
892.41	0.108
892.84	0.105
893.27	0.108
893.70	0.106
894.13	0.105
894.56	0.108
894.98	0.106
895.41	0.107
895.84	0.114
896.27	0.106
896.70	0.105
897.13	0.105
897.56	0.107
897.99	0.107
898.42	0.112
898.85	0.110
899.27	0.112
899.70	0.114
900.13	0.110
900.56	0.113
900.99	0.107
901.42	0.105
901.85	0.111
902.28	0.114
902.70	0.107
903.13	0.110
903.56	0.115
903.99	0.109
904.42	0.113
904.85	0.110
905.27	0.110
905.70	0.111
906.13	0.111
906.56	0.112
906.99	0.110
907.42	0.106
907.84	0.111
908.27	0.113
908.70	0.110
909.13	0.109
909.56	0.108
909.98	0.110
910.41	0.110
910.84	0.109
911.27	0.109
911.70	0.105
912.12	0.107
912.55	0.110
912.98	0.106
913.41	0.106
913.84	0.107
914.26	0.106
914.69	0.107
915.12	0.111
915.55	0.104
915.97	0.107
916.40	0.108
916.83	0.110
917.26	0.108
917.68	0.113
918.11	0.112
918.54	0.111
918.97	0.110
919.39	0.111
919.82	0.113
920.25	0.112
920.67	0.110
921.10	0.111
921.53	0.110
921.96	0.108
922.38	0.113
922.81	0.114
923.24	0.114
923.66	0.114
924.09	0.113
924.52	0.116
924.94	0.115
925.37	0.117
925.80	0.118
926.22	0.117
926.65	0.119
927.08	0.116
927.50	0.119
927.93	0.120
928.36	0.118
928.78	0.124
929.21	0.120
929.64	0.122
930.06	0.124
930.49	0.129
930.92	0.127
931.34	0.126
931.77	0.128
932.20	0.124
932.62	0.125
933.05	0.123
933.47	0.131
933.90	0.130
934.33	0.132
934.75	0.133
935.18	0.135
935.61	0.135
936.03	0.134
936.46	0.138
936.88	0.139
937.31	0.140
937.73	0.146
938.16	0.145
938.59	0.148
939.01	0.152
939.44	0.151
939.86	0.151
940.29	0.150
940.71	0.157
941.14	0.157
941.57	0.159
941.99	0.159
942.42	0.167
942.84	0.164
943.27	0.164
943.69	0.164
944.12	0.173
944.54	0.172
944.97	0.173
945.39	0.180
945.82	0.181
946.24	0.175
946.67	0.185
947.09	0.187
947.52	0.185
947.94	0.191
948.37	0.189
948.79	0.191
949.22	0.195
949.64	0.194
950.07	0.195
950.49	0.200
950.92	0.191
951.34	0.204
951.77	0.208
952.19	0.206
952.62	0.211
953.04	0.216
953.47	0.215
953.89	0.223
954.32	0.223
954.74	0.233
955.17	0.228
955.59	0.226
956.01	0.239
956.44	0.241
956.86	0.236
957.29	0.238
957.71	0.250
958.14	0.245
958.56	0.248
958.98	0.255
959.41	0.250
959.83	0.255
960.26	0.255
960.68	0.261
961.10	0.263
961.53	0.264
961.95	0.266
962.38	0.272
962.80	0.267
963.22	0.265
963.65	0.266
964.07	0.265
964.50	0.271
964.92	0.267
965.34	0.271
965.77	0.268
966.19	0.265
966.61	0.270
967.04	0.272
967.46	0.274
967.88	0.265
968.31	0.276
968.73	0.271
969.15	0.274
969.58	0.271
970.00	0.273
970.42	0.279
970.85	0.273
971.27	0.271
971.69	0.279
972.12	0.281
972.54	0.274
972.96	0.276
973.39	0.279
973.81	0.280
974.23	0.284
974.65	0.281
975.08	0.282
975.50	0.273
975.92	0.278
976.35	0.278
976.77	0.271
977.19	0.273
977.61	0.280
978.04	0.276
978.46	0.273
978.88	0.282
979.30	0.286
979.73	0.277
980.15	0.272
980.57	0.274
980.99	0.280
981.42	0.271
981.84	0.279
982.26	0.282
982.68	0.280
983.11	0.282
983.53	0.282
983.95	0.277
984.37	0.272
984.79	0.271
985.22	0.272
985.64	0.281
986.06	0.270
986.48	0.277
986.90	0.275
987.33	0.273
987.75	0.272
988.17	0.270
988.59	0.277
989.01	0.270
989.43	0.265
989.86	0.272
990.28	0.265
990.70	0.266
991.12	0.263
991.54	0.272
991.96	0.269
992.39	0.264
992.81	0.267
993.23	0.263
993.65	0.262
994.07	0.262
994.49	0.263
994.91	0.257
995.34	0.258
995.76	0.258
996.18	0.265
996.60	0.255
997.02	0.258
997.44	0.263
997.86	0.251
998.28	0.245
998.70	0.253
999.12	0.259
999.55	0.257
999.97	0.249
1000.39	0.251
1000.81	0.255
1001.23	0.243
1001.65	0.249
1002.07	0.248
1002.49	0.242
1002.91	0.243
1003.33	0.249
1003.75	0.250
1004.17	0.245
1004.59	0.247
1005.01	0.249
1005.43	0.241
1005.85	0.239
1006.28	0.237
1006.70	0.247
1007.12	0.233
1007.54	0.236
1007.96	0.241
1008.38	0.236
1008.80	0.240
1009.22	0.233
1009.64	0.231
1010.06	0.235
1010.48	0.231
1010.90	0.231
1011.32	0.240
1011.74	0.227
1012.16	0.228
1012.58	0.235
1013.00	0.227
1013.42	0.223
1013.84	0.229
1014.26	0.227
1014.67	0.227
1015.09	0.218
1015.51	0.233
1015.93	0.229
1016.35	0.214
1016.77	0.217
1017.19	0.225
1017.61	0.209
1018.03	0.212
1018.45	0.219
1018.87	0.219
1019.29	0.209
1019.71	0.207
1020.13	0.213
1020.55	0.218
1020.97	0.193
1021.38	0.203
1021.80	0.216
1022.22	0.198
1022.64	0.212
1023.06	0.216
1023.48	0.207
1023.90	0.197
1024.32	0.200
1024.74	0.195
1025.15	0.212
1025.57	0.201
1025.99	0.200
1026.41	0.207
1026.83	0.192
1027.25	0.197
1027.67	0.201
1028.08	0.201
1028.50	0.190
1028.92	0.195
1029.34	0.194
1029.76	0.201
1030.18	0.179
1030.60	0.201
1031.01	0.196
1031.43	0.180
1031.85	0.192
1032.27	0.192
1032.69	0.174
1033.10	0.187
1033.52	0.186
1033.94	0.187
1034.36	0.196
1034.78	0.192
1035.19	0.189
1035.61	0.191
1036.03	0.174
1036.45	0.184
1036.87	0.204
1037.28	0.175
1037.70	0.180
1038.12	0.173
1038.54	0.184
1038.95	0.176
1039.37	0.178
1039.79	0.184
1040.21	0.176
1040.62	0.155
1041.04	0.181
1041.46	0.186
1041.88	0.166
1042.29	0.176
1042.71	0.197
1043.13	0.167
1043.55	0.189
1043.96	0.162
1044.38	0.178
1044.80	0.187
1045.21	0.171
1045.63	0.183
1046.05	0.203
1046.47	0.173
1046.88	0.182
1047.30	0.183
1047.72	0.188
1048.13	0.151
1048.55	0.197
1048.97	0.196
1049.38	0.190
1049.80	0.125
1050.22	0.166
1050.63	0.187
1051.05	0.158
1051.47	0.190
1051.88	0.170
1052.30	0.178
1052.72	0.177
1053.13	0.183
1053.55	0.181
1053.97	0.173
1054.38	0.173
1054.80	0.189
1055.21	0.186
1055.63	0.150
1056.05	0.174
1056.46	0.208
1056.88	0.180
1057.29	0.170
1057.71	0.212
1058.13	0.168
1058.54	0.168
1058.96	0.168
1059.37	0.231
1059.79	0.217
1060.21	0.170
1060.62	0.153
1061.04	0.244
1061.45	0.198
1061.87	0.171
1062.28	0.216
1062.70	0.222
1063.12	0.205
1063.53	0.170
1063.95	0.241
1064.36	0.220
1064.78	0.173
1065.19	0.233
1065.61	0.307
1066.02	0.201
1066.44	0.240
1066.85	0.323
1067.27	0.196
1067.68	0.157
1068.10	0.303
1068.51	0.295
1068.93	0.297
1069.35	0.262
1069.76	0.276
1070.17	0.305
1070.59	0.188
1071.00	0.319
1071.42	0.349
1071.83	0.330
1072.25	0.266
1072.66	0.560
1073.08	0.326
1073.49	0.274
1073.91	0.298
1074.32	0.426
1074.74	0.590
1075.15	0.236
1075.57	0.410
1075.98	0.540
1076.40	0.473
1076.81	0.377
1077.22	0.552
1077.64	0.639
1078.05	0.864
1078.47	0.657
1078.88	0.804
1079.30	0.334
1079.71	0.515
1080.12	0.384
1080.54	1.464
1080.95	0.409
1081.37	0.372
1081.78	-0.000
1082.19	0.625
1082.61	0.804
1083.02	-0.000
1083.44	-0.000
1083.85	-0.000
1084.26	-0.000
1084.68	-0.000
1085.09	-0.000
1085.50	0.736
1085.92	0.988
1086.33	-0.000
1086.74	-0.000
1087.16	-0.000
1087.57	-0.000
1087.98	-0.000
1088.40	1.142
1088.81	-0.000
1089.22	-0.000
1089.64	1.156
1090.05	2.246
1090.46	-0.000
1090.88	-0.000
1091.29	-0.000
1091.70	-0.000
1092.12	-0.000
1092.53	-0.000
1092.94	0.633
1093.36	-0.000
1093.77	-0.000
1094.18	-0.000
1094.59	-0.000
1095.01	-0.000
1095.42	-0.000
1095.83	-0.000
1096.25	0.809
1096.66	-0.000
1097.07	-0.000
1097.48	1.498
1097.90	-0.000
1098.31	-0.000
1098.72	-0.000
1099.13	-0.000
>>>>>End Processed Spectral Data<<<<<
