SpectraSuite Data File
++++++++++++++++++++++++++++++++++++
Date: Wed May 04 15:38:49 CEST 2016
User: spectrasuite
Dark Spectrum Present: Yes
Reference Spectrum Present: Yes
Number of Sampled Component Spectra: 1
Spectrometers: HR+C0708
Integration Time (usec): 1000 (HR+C0708)
Spectra Averaged: 10 (HR+C0708)
Boxcar Smoothing: 0 (HR+C0708)
Correct for Electrical Dark: No (HR+C0708)
Strobe/Lamp Enabled: No (HR+C0708)
Correct for Detector Non-linearity: No (HR+C0708)
Correct for Stray Light: No (HR+C0708)
Number of Pixels in Processed Spectrum: 2048
>>>>>Begin Processed Spectral Data<<<<<
188.76	-0.000
189.23	-0.000
189.70	-0.000
190.17	-0.000
190.64	-0.000
191.12	-0.000
191.59	-0.000
192.06	-0.000
192.53	-0.000
193.01	-0.000
193.48	-0.000
193.95	-0.000
194.42	-0.000
194.90	-0.000
195.37	-0.000
195.84	-0.000
196.31	-0.000
196.78	-0.000
197.26	-0.000
197.73	-0.000
198.20	-0.000
198.67	-0.000
199.14	-0.000
199.62	-0.000
200.09	-0.000
200.56	-0.000
201.03	-0.000
201.50	-0.000
201.97	1.189
202.45	-0.000
202.92	-0.000
203.39	-0.000
203.86	-0.000
204.33	-0.000
204.80	-0.000
205.28	-0.000
205.75	-0.000
206.22	-0.000
206.69	-0.000
207.16	1.527
207.63	-0.000
208.11	1.997
208.58	1.226
209.05	-0.000
209.52	-0.000
209.99	1.065
210.46	1.477
210.93	-0.000
211.41	-0.000
211.88	-0.000
212.35	1.480
212.82	-0.000
213.29	-0.000
213.76	-0.000
214.23	-0.000
214.70	-0.000
215.18	-0.000
215.65	0.982
216.12	2.732
216.59	1.243
217.06	1.207
217.53	-0.000
218.00	1.264
218.47	1.494
218.94	1.294
219.41	0.784
219.89	-0.000
220.36	0.809
220.83	1.552
221.30	-0.000
221.77	1.826
222.24	0.865
222.71	1.478
223.18	1.399
223.65	1.307
224.12	1.044
224.59	0.893
225.06	-0.000
225.54	1.236
226.01	-0.000
226.48	-0.000
226.95	-0.000
227.42	1.671
227.89	-0.000
228.36	-0.000
228.83	2.015
229.30	1.429
229.77	-0.000
230.24	2.052
230.71	1.903
231.18	1.675
231.65	-0.000
232.12	-0.000
232.59	-0.000
233.06	-0.000
233.53	-0.000
234.00	1.850
234.47	2.717
234.94	-0.000
235.41	-0.000
235.88	2.209
236.35	2.866
236.82	2.811
237.29	2.283
237.76	2.189
238.23	-0.000
238.70	-0.000
239.17	2.353
239.64	-0.000
240.11	-0.000
240.58	2.870
241.05	3.095
241.52	3.470
241.99	2.560
242.46	2.512
242.93	2.611
243.40	-0.000
243.87	2.951
244.34	2.417
244.81	2.728
245.28	-0.000
245.75	2.593
246.22	2.832
246.69	-0.000
247.16	2.833
247.63	2.920
248.10	2.816
248.57	-0.000
249.04	3.152
249.51	2.592
249.98	3.665
250.45	3.451
250.92	2.589
251.39	2.588
251.85	2.488
252.32	2.175
252.79	2.066
253.26	1.879
253.73	1.797
254.20	1.725
254.67	1.603
255.14	1.545
255.61	1.468
256.08	1.378
256.55	1.318
257.02	1.269
257.49	1.215
257.95	1.168
258.42	1.140
258.89	1.103
259.36	1.075
259.83	1.044
260.30	1.022
260.77	0.989
261.24	0.963
261.71	0.946
262.17	0.930
262.64	0.911
263.11	0.890
263.58	0.872
264.05	0.862
264.52	0.843
264.99	0.831
265.46	0.823
265.92	0.805
266.39	0.789
266.86	0.781
267.33	0.770
267.80	0.761
268.27	0.748
268.74	0.742
269.20	0.734
269.67	0.720
270.14	0.716
270.61	0.710
271.08	0.700
271.55	0.687
272.01	0.686
272.48	0.678
272.95	0.667
273.42	0.663
273.89	0.661
274.36	0.651
274.82	0.642
275.29	0.641
275.76	0.637
276.23	0.628
276.70	0.625
277.16	0.627
277.63	0.624
278.10	0.612
278.57	0.612
279.04	0.609
279.50	0.604
279.97	0.601
280.44	0.602
280.91	0.602
281.38	0.595
281.84	0.594
282.31	0.593
282.78	0.592
283.25	0.590
283.72	0.591
284.18	0.590
284.65	0.587
285.12	0.588
285.59	0.588
286.05	0.583
286.52	0.589
286.99	0.587
287.46	0.587
287.92	0.586
288.39	0.584
288.86	0.583
289.33	0.585
289.79	0.582
290.26	0.581
290.73	0.578
291.20	0.578
291.66	0.574
292.13	0.575
292.60	0.570
293.07	0.563
293.53	0.560
294.00	0.553
294.47	0.554
294.93	0.548
295.40	0.541
295.87	0.536
296.34	0.526
296.80	0.521
297.27	0.509
297.74	0.507
298.20	0.498
298.67	0.489
299.14	0.481
299.60	0.475
300.07	0.463
300.54	0.460
301.01	0.452
301.47	0.444
301.94	0.438
302.41	0.426
302.87	0.420
303.34	0.415
303.81	0.406
304.27	0.402
304.74	0.393
305.21	0.387
305.67	0.383
306.14	0.377
306.61	0.366
307.07	0.362
307.54	0.358
308.01	0.354
308.47	0.351
308.94	0.342
309.40	0.341
309.87	0.336
310.34	0.334
310.80	0.329
311.27	0.323
311.74	0.320
312.20	0.320
312.67	0.316
313.13	0.312
313.60	0.313
314.07	0.308
314.53	0.306
315.00	0.300
315.47	0.303
315.93	0.302
316.40	0.295
316.86	0.296
317.33	0.295
317.80	0.293
318.26	0.289
318.73	0.289
319.19	0.290
319.66	0.286
320.13	0.282
320.59	0.282
321.06	0.284
321.52	0.281
321.99	0.279
322.45	0.278
322.92	0.278
323.39	0.276
323.85	0.275
324.32	0.276
324.78	0.270
325.25	0.267
325.71	0.269
326.18	0.266
326.64	0.265
327.11	0.260
327.58	0.262
328.04	0.266
328.51	0.261
328.97	0.259
329.44	0.258
329.90	0.256
330.37	0.253
330.83	0.252
331.30	0.253
331.76	0.249
332.23	0.249
332.69	0.245
333.16	0.244
333.62	0.241
334.09	0.241
334.56	0.238
335.02	0.236
335.49	0.233
335.95	0.231
336.42	0.230
336.88	0.225
337.35	0.226
337.81	0.226
338.28	0.226
338.74	0.226
339.20	0.226
339.67	0.223
340.13	0.222
340.60	0.221
341.06	0.217
341.53	0.214
341.99	0.215
342.46	0.211
342.92	0.211
343.39	0.207
343.85	0.205
344.32	0.208
344.78	0.206
345.25	0.211
345.71	0.207
346.17	0.210
346.64	0.210
347.10	0.206
347.57	0.205
348.03	0.200
348.50	0.200
348.96	0.199
349.43	0.204
349.89	0.201
350.35	0.202
350.82	0.196
351.28	0.201
351.75	0.194
352.21	0.204
352.67	0.195
353.14	0.193
353.60	0.195
354.07	0.195
354.53	0.192
355.00	0.192
355.46	0.187
355.92	0.190
356.39	0.189
356.85	0.185
357.31	0.183
357.78	0.183
358.24	0.182
358.71	0.184
359.17	0.182
359.63	0.181
360.10	0.182
360.56	0.179
361.03	0.179
361.49	0.179
361.95	0.176
362.42	0.178
362.88	0.180
363.34	0.179
363.81	0.179
364.27	0.178
364.73	0.178
365.20	0.177
365.66	0.175
366.12	0.177
366.59	0.175
367.05	0.176
367.51	0.174
367.98	0.174
368.44	0.175
368.90	0.173
369.37	0.175
369.83	0.172
370.29	0.171
370.76	0.171
371.22	0.169
371.68	0.170
372.15	0.169
372.61	0.167
373.07	0.170
373.54	0.168
374.00	0.168
374.46	0.168
374.92	0.169
375.39	0.167
375.85	0.168
376.31	0.167
376.78	0.169
377.24	0.166
377.70	0.167
378.16	0.166
378.63	0.167
379.09	0.168
379.55	0.167
380.01	0.167
380.48	0.165
380.94	0.166
381.40	0.167
381.87	0.167
382.33	0.162
382.79	0.164
383.25	0.164
383.72	0.164
384.18	0.165
384.64	0.164
385.10	0.163
385.56	0.162
386.03	0.163
386.49	0.160
386.95	0.162
387.41	0.163
387.88	0.160
388.34	0.161
388.80	0.161
389.26	0.162
389.72	0.163
390.19	0.159
390.65	0.158
391.11	0.161
391.57	0.158
392.04	0.159
392.50	0.159
392.96	0.160
393.42	0.156
393.88	0.159
394.34	0.158
394.81	0.159
395.27	0.156
395.73	0.155
396.19	0.156
396.65	0.158
397.12	0.155
397.58	0.155
398.04	0.154
398.50	0.155
398.96	0.157
399.42	0.159
399.89	0.157
400.35	0.155
400.81	0.154
401.27	0.156
401.73	0.155
402.19	0.154
402.65	0.150
403.12	0.151
403.58	0.152
404.04	0.148
404.50	0.149
404.96	0.147
405.42	0.149
405.88	0.152
406.34	0.153
406.81	0.151
407.27	0.150
407.73	0.144
408.19	0.146
408.65	0.144
409.11	0.147
409.57	0.145
410.03	0.149
410.49	0.149
410.96	0.145
411.42	0.148
411.88	0.144
412.34	0.142
412.80	0.145
413.26	0.148
413.72	0.144
414.18	0.141
414.64	0.143
415.10	0.146
415.56	0.147
416.02	0.144
416.48	0.142
416.95	0.145
417.41	0.144
417.87	0.143
418.33	0.140
418.79	0.141
419.25	0.143
419.71	0.141
420.17	0.139
420.63	0.139
421.09	0.139
421.55	0.140
422.01	0.141
422.47	0.144
422.93	0.144
423.39	0.140
423.85	0.139
424.31	0.140
424.77	0.140
425.23	0.140
425.69	0.142
426.15	0.141
426.61	0.142
427.07	0.136
427.53	0.138
427.99	0.139
428.45	0.142
428.91	0.137
429.37	0.138
429.83	0.138
430.29	0.138
430.75	0.139
431.21	0.142
431.67	0.143
432.13	0.142
432.59	0.137
433.05	0.139
433.51	0.136
433.97	0.134
434.43	0.140
434.89	0.143
435.35	0.139
435.81	0.139
436.27	0.138
436.73	0.137
437.19	0.139
437.65	0.136
438.11	0.138
438.57	0.139
439.03	0.138
439.48	0.138
439.94	0.136
440.40	0.137
440.86	0.131
441.32	0.136
441.78	0.134
442.24	0.139
442.70	0.138
443.16	0.136
443.62	0.136
444.08	0.132
444.54	0.136
444.99	0.136
445.45	0.133
445.91	0.135
446.37	0.134
446.83	0.133
447.29	0.134
447.75	0.134
448.21	0.139
448.67	0.135
449.12	0.134
449.58	0.133
450.04	0.136
450.50	0.136
450.96	0.133
451.42	0.135
451.88	0.137
452.34	0.133
452.79	0.133
453.25	0.137
453.71	0.135
454.17	0.131
454.63	0.136
455.09	0.135
455.55	0.134
456.00	0.132
456.46	0.132
456.92	0.134
457.38	0.133
457.84	0.132
458.30	0.134
458.75	0.133
459.21	0.131
459.67	0.130
460.13	0.132
460.59	0.133
461.04	0.133
461.50	0.131
461.96	0.131
462.42	0.130
462.88	0.130
463.33	0.132
463.79	0.132
464.25	0.129
464.71	0.134
465.17	0.131
465.62	0.129
466.08	0.132
466.54	0.132
467.00	0.131
467.46	0.132
467.91	0.133
468.37	0.133
468.83	0.133
469.29	0.130
469.74	0.130
470.20	0.132
470.66	0.132
471.12	0.133
471.57	0.131
472.03	0.132
472.49	0.132
472.95	0.133
473.40	0.132
473.86	0.133
474.32	0.131
474.78	0.130
475.23	0.133
475.69	0.130
476.15	0.135
476.60	0.134
477.06	0.133
477.52	0.129
477.98	0.133
478.43	0.133
478.89	0.131
479.35	0.132
479.80	0.133
480.26	0.130
480.72	0.130
481.18	0.132
481.63	0.134
482.09	0.131
482.55	0.130
483.00	0.128
483.46	0.131
483.92	0.131
484.37	0.127
484.83	0.130
485.29	0.130
485.74	0.128
486.20	0.130
486.66	0.131
487.11	0.130
487.57	0.130
488.03	0.129
488.48	0.132
488.94	0.130
489.40	0.128
489.85	0.132
490.31	0.131
490.77	0.129
491.22	0.131
491.68	0.129
492.13	0.129
492.59	0.132
493.05	0.128
493.50	0.129
493.96	0.130
494.42	0.130
494.87	0.130
495.33	0.127
495.78	0.128
496.24	0.129
496.70	0.131
497.15	0.130
497.61	0.131
498.06	0.129
498.52	0.130
498.98	0.129
499.43	0.129
499.89	0.131
500.34	0.127
500.80	0.129
501.25	0.129
501.71	0.127
502.17	0.126
502.62	0.128
503.08	0.125
503.53	0.127
503.99	0.129
504.44	0.127
504.90	0.126
505.36	0.127
505.81	0.130
506.27	0.127
506.72	0.127
507.18	0.127
507.63	0.127
508.09	0.127
508.54	0.125
509.00	0.128
509.45	0.128
509.91	0.127
510.36	0.128
510.82	0.129
511.27	0.129
511.73	0.128
512.19	0.127
512.64	0.128
513.10	0.127
513.55	0.125
514.01	0.128
514.46	0.128
514.92	0.127
515.37	0.127
515.83	0.125
516.28	0.125
516.73	0.125
517.19	0.125
517.64	0.128
518.10	0.125
518.55	0.125
519.01	0.127
519.46	0.126
519.92	0.124
520.37	0.124
520.83	0.126
521.28	0.124
521.74	0.124
522.19	0.126
522.65	0.125
523.10	0.124
523.55	0.125
524.01	0.126
524.46	0.123
524.92	0.123
525.37	0.127
525.83	0.125
526.28	0.124
526.73	0.124
527.19	0.125
527.64	0.124
528.10	0.125
528.55	0.126
529.01	0.125
529.46	0.126
529.91	0.124
530.37	0.125
530.82	0.124
531.28	0.122
531.73	0.127
532.18	0.127
532.64	0.124
533.09	0.126
533.54	0.124
534.00	0.126
534.45	0.127
534.91	0.124
535.36	0.126
535.81	0.124
536.27	0.124
536.72	0.128
537.17	0.128
537.63	0.127
538.08	0.128
538.54	0.126
538.99	0.130
539.44	0.126
539.90	0.129
540.35	0.126
540.80	0.127
541.26	0.127
541.71	0.130
542.16	0.129
542.62	0.131
543.07	0.129
543.52	0.129
543.98	0.129
544.43	0.130
544.88	0.128
545.34	0.132
545.79	0.130
546.24	0.131
546.69	0.130
547.15	0.132
547.60	0.132
548.05	0.131
548.51	0.132
548.96	0.134
549.41	0.132
549.86	0.134
550.32	0.135
550.77	0.134
551.22	0.133
551.68	0.137
552.13	0.136
552.58	0.135
553.03	0.136
553.49	0.135
553.94	0.136
554.39	0.136
554.84	0.139
555.30	0.138
555.75	0.136
556.20	0.140
556.65	0.139
557.11	0.141
557.56	0.138
558.01	0.141
558.46	0.141
558.92	0.142
559.37	0.143
559.82	0.142
560.27	0.144
560.72	0.143
561.18	0.144
561.63	0.144
562.08	0.144
562.53	0.144
562.99	0.146
563.44	0.147
563.89	0.147
564.34	0.149
564.79	0.149
565.25	0.150
565.70	0.150
566.15	0.149
566.60	0.153
567.05	0.152
567.50	0.152
567.96	0.154
568.41	0.153
568.86	0.152
569.31	0.154
569.76	0.157
570.21	0.157
570.67	0.155
571.12	0.156
571.57	0.156
572.02	0.159
572.47	0.158
572.92	0.159
573.37	0.163
573.83	0.162
574.28	0.162
574.73	0.160
575.18	0.164
575.63	0.162
576.08	0.166
576.53	0.165
576.98	0.166
577.44	0.169
577.89	0.166
578.34	0.170
578.79	0.170
579.24	0.170
579.69	0.172
580.14	0.171
580.59	0.174
581.04	0.174
581.49	0.176
581.95	0.177
582.40	0.179
582.85	0.180
583.30	0.181
583.75	0.184
584.20	0.184
584.65	0.186
585.10	0.187
585.55	0.188
586.00	0.190
586.45	0.191
586.90	0.192
587.35	0.192
587.80	0.195
588.25	0.196
588.71	0.196
589.16	0.202
589.61	0.200
590.06	0.203
590.51	0.204
590.96	0.205
591.41	0.207
591.86	0.210
592.31	0.210
592.76	0.214
593.21	0.215
593.66	0.218
594.11	0.217
594.56	0.219
595.01	0.222
595.46	0.222
595.91	0.225
596.36	0.227
596.81	0.230
597.26	0.230
597.71	0.230
598.16	0.234
598.61	0.236
599.06	0.237
599.51	0.239
599.96	0.241
600.41	0.244
600.86	0.244
601.31	0.248
601.76	0.249
602.21	0.252
602.65	0.255
603.10	0.254
603.55	0.255
604.00	0.260
604.45	0.259
604.90	0.260
605.35	0.263
605.80	0.262
606.25	0.264
606.70	0.269
607.15	0.268
607.60	0.269
608.05	0.271
608.50	0.272
608.95	0.274
609.39	0.276
609.84	0.276
610.29	0.279
610.74	0.279
611.19	0.279
611.64	0.280
612.09	0.281
612.54	0.283
612.99	0.284
613.44	0.285
613.88	0.287
614.33	0.286
614.78	0.288
615.23	0.290
615.68	0.286
616.13	0.290
616.58	0.291
617.03	0.292
617.47	0.292
617.92	0.294
618.37	0.293
618.82	0.295
619.27	0.294
619.72	0.295
620.17	0.295
620.61	0.296
621.06	0.298
621.51	0.295
621.96	0.296
622.41	0.296
622.86	0.298
623.30	0.299
623.75	0.303
624.20	0.301
624.65	0.302
625.10	0.302
625.54	0.302
625.99	0.302
626.44	0.305
626.89	0.306
627.34	0.306
627.78	0.309
628.23	0.309
628.68	0.309
629.13	0.310
629.58	0.311
630.02	0.313
630.47	0.317
630.92	0.316
631.37	0.320
631.81	0.320
632.26	0.319
632.71	0.324
633.16	0.324
633.61	0.326
634.05	0.330
634.50	0.329
634.95	0.329
635.40	0.331
635.84	0.336
636.29	0.339
636.74	0.343
637.18	0.343
637.63	0.344
638.08	0.347
638.53	0.349
638.97	0.350
639.42	0.352
639.87	0.355
640.32	0.361
640.76	0.361
641.21	0.363
641.66	0.367
642.10	0.369
642.55	0.373
643.00	0.375
643.44	0.377
643.89	0.382
644.34	0.384
644.79	0.388
645.23	0.392
645.68	0.395
646.13	0.396
646.57	0.401
647.02	0.401
647.47	0.406
647.91	0.407
648.36	0.410
648.81	0.416
649.25	0.417
649.70	0.420
650.15	0.424
650.59	0.426
651.04	0.427
651.48	0.429
651.93	0.432
652.38	0.439
652.82	0.440
653.27	0.437
653.72	0.443
654.16	0.446
654.61	0.447
655.06	0.451
655.50	0.451
655.95	0.449
656.39	0.452
656.84	0.462
657.29	0.465
657.73	0.464
658.18	0.464
658.62	0.464
659.07	0.466
659.52	0.469
659.96	0.470
660.41	0.473
660.85	0.473
661.30	0.475
661.74	0.476
662.19	0.476
662.64	0.475
663.08	0.477
663.53	0.479
663.97	0.478
664.42	0.477
664.86	0.478
665.31	0.478
665.75	0.478
666.20	0.475
666.65	0.477
667.09	0.475
667.54	0.473
667.98	0.471
668.43	0.471
668.87	0.466
669.32	0.466
669.76	0.463
670.21	0.459
670.65	0.456
671.10	0.454
671.54	0.449
671.99	0.447
672.43	0.442
672.88	0.434
673.32	0.428
673.77	0.427
674.21	0.421
674.66	0.410
675.10	0.406
675.55	0.401
675.99	0.395
676.44	0.387
676.88	0.382
677.33	0.375
677.77	0.366
678.22	0.360
678.66	0.352
679.11	0.346
679.55	0.339
679.99	0.327
680.44	0.323
680.88	0.313
681.33	0.308
681.77	0.299
682.22	0.291
682.66	0.287
683.11	0.277
683.55	0.270
683.99	0.262
684.44	0.258
684.88	0.253
685.33	0.244
685.77	0.236
686.21	0.232
686.66	0.224
687.10	0.218
687.55	0.212
687.99	0.208
688.44	0.201
688.88	0.195
689.32	0.190
689.77	0.188
690.21	0.183
690.65	0.177
691.10	0.173
691.54	0.169
691.99	0.163
692.43	0.163
692.87	0.158
693.32	0.155
693.76	0.151
694.20	0.147
694.65	0.144
695.09	0.140
695.53	0.138
695.98	0.136
696.42	0.135
696.86	0.132
697.31	0.130
697.75	0.128
698.19	0.126
698.64	0.123
699.08	0.121
699.52	0.119
699.97	0.116
700.41	0.117
700.85	0.115
701.30	0.108
701.74	0.111
702.18	0.108
702.63	0.108
703.07	0.105
703.51	0.106
703.96	0.105
704.40	0.104
704.84	0.103
705.28	0.104
705.73	0.103
706.17	0.098
706.61	0.101
707.06	0.098
707.50	0.099
707.94	0.099
708.38	0.097
708.83	0.097
709.27	0.096
709.71	0.096
710.15	0.094
710.60	0.097
711.04	0.091
711.48	0.093
711.92	0.093
712.37	0.092
712.81	0.091
713.25	0.093
713.69	0.091
714.13	0.090
714.58	0.092
715.02	0.089
715.46	0.090
715.90	0.091
716.35	0.088
716.79	0.090
717.23	0.090
717.67	0.088
718.11	0.087
718.56	0.089
719.00	0.091
719.44	0.089
719.88	0.090
720.32	0.090
720.76	0.088
721.21	0.089
721.65	0.089
722.09	0.087
722.53	0.088
722.97	0.090
723.41	0.088
723.86	0.090
724.30	0.089
724.74	0.090
725.18	0.088
725.62	0.087
726.06	0.090
726.50	0.091
726.95	0.090
727.39	0.088
727.83	0.091
728.27	0.092
728.71	0.091
729.15	0.089
729.59	0.088
730.03	0.088
730.48	0.090
730.92	0.088
731.36	0.088
731.80	0.088
732.24	0.092
732.68	0.090
733.12	0.091
733.56	0.091
734.00	0.092
734.44	0.088
734.89	0.092
735.33	0.089
735.77	0.092
736.21	0.092
736.65	0.092
737.09	0.094
737.53	0.093
737.97	0.092
738.41	0.091
738.85	0.093
739.29	0.092
739.73	0.092
740.17	0.089
740.61	0.090
741.05	0.092
741.49	0.090
741.93	0.090
742.37	0.090
742.81	0.091
743.26	0.091
743.70	0.091
744.14	0.091
744.58	0.090
745.02	0.091
745.46	0.092
745.90	0.088
746.34	0.090
746.78	0.092
747.22	0.091
747.66	0.089
748.10	0.089
748.54	0.090
748.98	0.092
749.42	0.092
749.86	0.091
750.29	0.091
750.73	0.093
751.17	0.090
751.61	0.093
752.05	0.090
752.49	0.091
752.93	0.090
753.37	0.091
753.81	0.091
754.25	0.092
754.69	0.094
755.13	0.093
755.57	0.089
756.01	0.089
756.45	0.089
756.89	0.089
757.33	0.091
757.77	0.091
758.21	0.090
758.64	0.088
759.08	0.088
759.52	0.090
759.96	0.092
760.40	0.086
760.84	0.086
761.28	0.085
761.72	0.090
762.16	0.087
762.60	0.091
763.03	0.090
763.47	0.087
763.91	0.089
764.35	0.088
764.79	0.088
765.23	0.090
765.67	0.087
766.11	0.090
766.54	0.089
766.98	0.085
767.42	0.090
767.86	0.093
768.30	0.088
768.74	0.086
769.17	0.089
769.61	0.088
770.05	0.088
770.49	0.092
770.93	0.088
771.37	0.089
771.80	0.086
772.24	0.084
772.68	0.087
773.12	0.087
773.56	0.089
774.00	0.090
774.43	0.089
774.87	0.086
775.31	0.092
775.75	0.087
776.19	0.088
776.62	0.089
777.06	0.086
777.50	0.088
777.94	0.086
778.37	0.090
778.81	0.087
779.25	0.085
779.69	0.088
780.13	0.086
780.56	0.085
781.00	0.086
781.44	0.087
781.88	0.088
782.31	0.085
782.75	0.086
783.19	0.085
783.63	0.087
784.06	0.088
784.50	0.086
784.94	0.091
785.37	0.084
785.81	0.085
786.25	0.087
786.69	0.088
787.12	0.088
787.56	0.091
788.00	0.088
788.43	0.091
788.87	0.090
789.31	0.089
789.75	0.089
790.18	0.089
790.62	0.085
791.06	0.089
791.49	0.091
791.93	0.084
792.37	0.087
792.80	0.090
793.24	0.088
793.68	0.085
794.11	0.089
794.55	0.089
794.99	0.088
795.42	0.090
795.86	0.089
796.30	0.090
796.73	0.086
797.17	0.088
797.61	0.089
798.04	0.085
798.48	0.088
798.91	0.089
799.35	0.091
799.79	0.086
800.22	0.091
800.66	0.085
801.10	0.089
801.53	0.090
801.97	0.089
802.40	0.085
802.84	0.085
803.28	0.085
803.71	0.086
804.15	0.088
804.58	0.089
805.02	0.089
805.46	0.086
805.89	0.088
806.33	0.086
806.76	0.089
807.20	0.088
807.63	0.091
808.07	0.088
808.51	0.089
808.94	0.090
809.38	0.084
809.81	0.092
810.25	0.089
810.68	0.088
811.12	0.086
811.55	0.090
811.99	0.089
812.42	0.086
812.86	0.089
813.29	0.087
813.73	0.089
814.17	0.085
814.60	0.087
815.04	0.083
815.47	0.085
815.91	0.084
816.34	0.086
816.78	0.088
817.21	0.085
817.65	0.088
818.08	0.085
818.52	0.087
818.95	0.090
819.39	0.091
819.82	0.087
820.25	0.087
820.69	0.092
821.12	0.089
821.56	0.088
821.99	0.090
822.43	0.087
822.86	0.087
823.30	0.084
823.73	0.090
824.17	0.091
824.60	0.088
825.04	0.088
825.47	0.087
825.90	0.087
826.34	0.090
826.77	0.088
827.21	0.092
827.64	0.087
828.08	0.089
828.51	0.091
828.94	0.088
829.38	0.090
829.81	0.094
830.25	0.096
830.68	0.093
831.11	0.091
831.55	0.092
831.98	0.097
832.42	0.095
832.85	0.096
833.28	0.094
833.72	0.098
834.15	0.099
834.58	0.090
835.02	0.092
835.45	0.094
835.88	0.096
836.32	0.097
836.75	0.098
837.19	0.096
837.62	0.094
838.05	0.098
838.49	0.096
838.92	0.093
839.35	0.096
839.79	0.097
840.22	0.096
840.65	0.099
841.09	0.096
841.52	0.099
841.95	0.095
842.39	0.099
842.82	0.100
843.25	0.094
843.68	0.097
844.12	0.096
844.55	0.097
844.98	0.096
845.42	0.095
845.85	0.098
846.28	0.099
846.71	0.094
847.15	0.097
847.58	0.100
848.01	0.096
848.45	0.098
848.88	0.094
849.31	0.097
849.74	0.096
850.18	0.094
850.61	0.102
851.04	0.096
851.47	0.098
851.91	0.094
852.34	0.100
852.77	0.099
853.20	0.102
853.64	0.100
854.07	0.097
854.50	0.098
854.93	0.096
855.36	0.100
855.80	0.099
856.23	0.101
856.66	0.099
857.09	0.101
857.52	0.100
857.96	0.099
858.39	0.104
858.82	0.095
859.25	0.100
859.68	0.104
860.12	0.098
860.55	0.101
860.98	0.099
861.41	0.098
861.84	0.105
862.27	0.103
862.71	0.101
863.14	0.101
863.57	0.103
864.00	0.099
864.43	0.099
864.86	0.104
865.30	0.096
865.73	0.104
866.16	0.104
866.59	0.106
867.02	0.101
867.45	0.102
867.88	0.107
868.31	0.103
868.75	0.101
869.18	0.101
869.61	0.107
870.04	0.105
870.47	0.104
870.90	0.112
871.33	0.107
871.76	0.105
872.19	0.103
872.62	0.108
873.06	0.111
873.49	0.102
873.92	0.106
874.35	0.105
874.78	0.111
875.21	0.102
875.64	0.104
876.07	0.110
876.50	0.104
876.93	0.106
877.36	0.107
877.79	0.105
878.22	0.101
878.65	0.105
879.08	0.116
879.51	0.106
879.94	0.106
880.37	0.109
880.80	0.104
881.23	0.107
881.67	0.104
882.10	0.110
882.53	0.104
882.96	0.113
883.39	0.114
883.82	0.106
884.25	0.107
884.68	0.106
885.11	0.105
885.54	0.106
885.97	0.106
886.39	0.106
886.82	0.107
887.25	0.110
887.68	0.111
888.11	0.106
888.54	0.108
888.97	0.103
889.40	0.109
889.83	0.112
890.26	0.110
890.69	0.105
891.12	0.112
891.55	0.112
891.98	0.112
892.41	0.108
892.84	0.109
893.27	0.105
893.70	0.108
894.13	0.111
894.56	0.110
894.98	0.110
895.41	0.111
895.84	0.117
896.27	0.109
896.70	0.104
897.13	0.104
897.56	0.112
897.99	0.111
898.42	0.115
898.85	0.115
899.27	0.110
899.70	0.115
900.13	0.114
900.56	0.112
900.99	0.112
901.42	0.107
901.85	0.113
902.28	0.116
902.70	0.113
903.13	0.115
903.56	0.118
903.99	0.109
904.42	0.112
904.85	0.114
905.27	0.111
905.70	0.117
906.13	0.113
906.56	0.112
906.99	0.110
907.42	0.110
907.84	0.110
908.27	0.112
908.70	0.110
909.13	0.112
909.56	0.110
909.98	0.112
910.41	0.108
910.84	0.110
911.27	0.109
911.70	0.106
912.12	0.111
912.55	0.114
912.98	0.106
913.41	0.110
913.84	0.109
914.26	0.109
914.69	0.106
915.12	0.114
915.55	0.111
915.97	0.109
916.40	0.111
916.83	0.108
917.26	0.111
917.68	0.114
918.11	0.114
918.54	0.114
918.97	0.111
919.39	0.112
919.82	0.111
920.25	0.111
920.67	0.111
921.10	0.112
921.53	0.113
921.96	0.113
922.38	0.114
922.81	0.112
923.24	0.117
923.66	0.120
924.09	0.114
924.52	0.117
924.94	0.120
925.37	0.120
925.80	0.120
926.22	0.118
926.65	0.121
927.08	0.120
927.50	0.119
927.93	0.121
928.36	0.120
928.78	0.125
929.21	0.125
929.64	0.127
930.06	0.129
930.49	0.132
930.92	0.126
931.34	0.129
931.77	0.129
932.20	0.129
932.62	0.126
933.05	0.126
933.47	0.129
933.90	0.135
934.33	0.133
934.75	0.137
935.18	0.139
935.61	0.137
936.03	0.137
936.46	0.137
936.88	0.144
937.31	0.146
937.73	0.148
938.16	0.148
938.59	0.154
939.01	0.153
939.44	0.156
939.86	0.154
940.29	0.156
940.71	0.162
941.14	0.156
941.57	0.167
941.99	0.166
942.42	0.166
942.84	0.168
943.27	0.167
943.69	0.170
944.12	0.178
944.54	0.178
944.97	0.180
945.39	0.190
945.82	0.189
946.24	0.182
946.67	0.182
947.09	0.192
947.52	0.191
947.94	0.190
948.37	0.193
948.79	0.199
949.22	0.200
949.64	0.197
950.07	0.201
950.49	0.208
950.92	0.206
951.34	0.207
951.77	0.212
952.19	0.210
952.62	0.217
953.04	0.224
953.47	0.224
953.89	0.231
954.32	0.226
954.74	0.233
955.17	0.232
955.59	0.232
956.01	0.239
956.44	0.243
956.86	0.249
957.29	0.245
957.71	0.258
958.14	0.254
958.56	0.264
958.98	0.257
959.41	0.261
959.83	0.255
960.26	0.260
960.68	0.267
961.10	0.268
961.53	0.263
961.95	0.271
962.38	0.274
962.80	0.270
963.22	0.276
963.65	0.268
964.07	0.273
964.50	0.277
964.92	0.274
965.34	0.278
965.77	0.273
966.19	0.267
966.61	0.275
967.04	0.277
967.46	0.282
967.88	0.272
968.31	0.276
968.73	0.281
969.15	0.279
969.58	0.281
970.00	0.278
970.42	0.280
970.85	0.272
971.27	0.279
971.69	0.284
972.12	0.278
972.54	0.282
972.96	0.282
973.39	0.286
973.81	0.285
974.23	0.285
974.65	0.285
975.08	0.284
975.50	0.275
975.92	0.284
976.35	0.282
976.77	0.290
977.19	0.278
977.61	0.281
978.04	0.283
978.46	0.277
978.88	0.274
979.30	0.279
979.73	0.282
980.15	0.282
980.57	0.286
980.99	0.280
981.42	0.280
981.84	0.280
982.26	0.285
982.68	0.283
983.11	0.285
983.53	0.283
983.95	0.283
984.37	0.277
984.79	0.278
985.22	0.284
985.64	0.286
986.06	0.273
986.48	0.279
986.90	0.282
987.33	0.283
987.75	0.275
988.17	0.278
988.59	0.283
989.01	0.270
989.43	0.270
989.86	0.274
990.28	0.269
990.70	0.271
991.12	0.271
991.54	0.276
991.96	0.272
992.39	0.258
992.81	0.267
993.23	0.268
993.65	0.271
994.07	0.266
994.49	0.272
994.91	0.265
995.34	0.263
995.76	0.264
996.18	0.268
996.60	0.261
997.02	0.262
997.44	0.270
997.86	0.264
998.28	0.256
998.70	0.255
999.12	0.262
999.55	0.261
999.97	0.259
1000.39	0.259
1000.81	0.253
1001.23	0.244
1001.65	0.255
1002.07	0.247
1002.49	0.251
1002.91	0.256
1003.33	0.256
1003.75	0.252
1004.17	0.250
1004.59	0.252
1005.01	0.253
1005.43	0.246
1005.85	0.239
1006.28	0.243
1006.70	0.256
1007.12	0.249
1007.54	0.249
1007.96	0.246
1008.38	0.242
1008.80	0.239
1009.22	0.248
1009.64	0.241
1010.06	0.243
1010.48	0.242
1010.90	0.246
1011.32	0.246
1011.74	0.243
1012.16	0.239
1012.58	0.243
1013.00	0.230
1013.42	0.231
1013.84	0.233
1014.26	0.233
1014.67	0.232
1015.09	0.228
1015.51	0.239
1015.93	0.233
1016.35	0.207
1016.77	0.233
1017.19	0.227
1017.61	0.223
1018.03	0.216
1018.45	0.223
1018.87	0.225
1019.29	0.218
1019.71	0.207
1020.13	0.225
1020.55	0.228
1020.97	0.205
1021.38	0.224
1021.80	0.229
1022.22	0.217
1022.64	0.215
1023.06	0.219
1023.48	0.219
1023.90	0.204
1024.32	0.202
1024.74	0.212
1025.15	0.212
1025.57	0.204
1025.99	0.217
1026.41	0.215
1026.83	0.208
1027.25	0.210
1027.67	0.219
1028.08	0.211
1028.50	0.214
1028.92	0.207
1029.34	0.200
1029.76	0.213
1030.18	0.197
1030.60	0.216
1031.01	0.209
1031.43	0.190
1031.85	0.211
1032.27	0.205
1032.69	0.188
1033.10	0.206
1033.52	0.194
1033.94	0.200
1034.36	0.197
1034.78	0.193
1035.19	0.211
1035.61	0.202
1036.03	0.193
1036.45	0.194
1036.87	0.212
1037.28	0.185
1037.70	0.187
1038.12	0.195
1038.54	0.193
1038.95	0.196
1039.37	0.184
1039.79	0.193
1040.21	0.193
1040.62	0.164
1041.04	0.203
1041.46	0.202
1041.88	0.190
1042.29	0.181
1042.71	0.207
1043.13	0.181
1043.55	0.185
1043.96	0.197
1044.38	0.193
1044.80	0.208
1045.21	0.188
1045.63	0.209
1046.05	0.204
1046.47	0.190
1046.88	0.199
1047.30	0.188
1047.72	0.194
1048.13	0.159
1048.55	0.207
1048.97	0.201
1049.38	0.196
1049.80	0.185
1050.22	0.211
1050.63	0.205
1051.05	0.178
1051.47	0.215
1051.88	0.200
1052.30	0.188
1052.72	0.171
1053.13	0.217
1053.55	0.219
1053.97	0.187
1054.38	0.194
1054.80	0.229
1055.21	0.211
1055.63	0.174
1056.05	0.202
1056.46	0.197
1056.88	0.213
1057.29	0.204
1057.71	0.241
1058.13	0.255
1058.54	0.204
1058.96	0.224
1059.37	0.279
1059.79	0.243
1060.21	0.225
1060.62	0.217
1061.04	0.279
1061.45	0.223
1061.87	0.285
1062.28	0.298
1062.70	0.238
1063.12	0.300
1063.53	0.255
1063.95	0.318
1064.36	0.259
1064.78	0.265
1065.19	0.328
1065.61	0.312
1066.02	0.227
1066.44	0.289
1066.85	0.364
1067.27	0.329
1067.68	0.316
1068.10	0.344
1068.51	0.424
1068.93	0.284
1069.35	0.304
1069.76	0.492
1070.17	0.432
1070.59	0.302
1071.00	0.515
1071.42	0.543
1071.83	0.358
1072.25	0.447
1072.66	0.521
1073.08	0.627
1073.49	0.568
1073.91	0.471
1074.32	0.861
1074.74	0.933
1075.15	0.579
1075.57	0.738
1075.98	1.654
1076.40	0.812
1076.81	-0.000
1077.22	-0.000
1077.64	-0.000
1078.05	-0.000
1078.47	-0.000
1078.88	-0.000
1079.30	0.790
1079.71	0.864
1080.12	-0.000
1080.54	-0.000
1080.95	-0.000
1081.37	-0.000
1081.78	-0.000
1082.19	-0.000
1082.61	-0.000
1083.02	-0.000
1083.44	-0.000
1083.85	-0.000
1084.26	0.973
1084.68	-0.000
1085.09	-0.000
1085.50	-0.000
1085.92	-0.000
1086.33	-0.000
1086.74	-0.000
1087.16	-0.000
1087.57	-0.000
1087.98	-0.000
1088.40	-0.000
1088.81	-0.000
1089.22	-0.000
1089.64	-0.000
1090.05	-0.000
1090.46	-0.000
1090.88	-0.000
1091.29	-0.000
1091.70	-0.000
1092.12	-0.000
1092.53	-0.000
1092.94	-0.000
1093.36	-0.000
1093.77	-0.000
1094.18	-0.000
1094.59	-0.000
1095.01	-0.000
1095.42	-0.000
1095.83	-0.000
1096.25	-0.000
1096.66	-0.000
1097.07	-0.000
1097.48	-0.000
1097.90	-0.000
1098.31	-0.000
1098.72	-0.000
1099.13	-0.000
>>>>>End Processed Spectral Data<<<<<
