SpectraSuite Data File
++++++++++++++++++++++++++++++++++++
Date: Wed May 04 17:05:30 CEST 2016
User: spectrasuite
Dark Spectrum Present: Yes
Reference Spectrum Present: Yes
Number of Sampled Component Spectra: 1
Spectrometers: HR+C0708
Integration Time (usec): 1000 (HR+C0708)
Spectra Averaged: 10 (HR+C0708)
Boxcar Smoothing: 0 (HR+C0708)
Correct for Electrical Dark: No (HR+C0708)
Strobe/Lamp Enabled: No (HR+C0708)
Correct for Detector Non-linearity: No (HR+C0708)
Correct for Stray Light: No (HR+C0708)
Number of Pixels in Processed Spectrum: 2048
>>>>>Begin Processed Spectral Data<<<<<
188.76	-0.000
189.23	-0.000
189.70	-0.000
190.17	-0.000
190.64	-0.000
191.12	-0.000
191.59	-0.000
192.06	-0.000
192.53	-0.000
193.01	-0.000
193.48	-0.000
193.95	-0.000
194.42	-0.000
194.90	-0.000
195.37	-0.000
195.84	-0.000
196.31	-0.000
196.78	-0.000
197.26	-0.000
197.73	-0.000
198.20	-0.000
198.67	-0.000
199.14	-0.000
199.62	-0.000
200.09	-0.000
200.56	-0.000
201.03	-0.000
201.50	-0.000
201.97	-0.000
202.45	-0.000
202.92	-0.000
203.39	-0.000
203.86	-0.000
204.33	-0.000
204.80	-0.000
205.28	-0.000
205.75	-0.000
206.22	-0.000
206.69	-0.000
207.16	-0.000
207.63	-0.000
208.11	-0.000
208.58	-0.000
209.05	-0.000
209.52	-0.000
209.99	-0.000
210.46	1.090
210.93	-0.000
211.41	-0.000
211.88	-0.000
212.35	-0.000
212.82	-0.000
213.29	-0.000
213.76	-0.000
214.23	-0.000
214.70	-0.000
215.18	-0.000
215.65	1.087
216.12	-0.000
216.59	-0.000
217.06	0.979
217.53	-0.000
218.00	-0.000
218.47	-0.000
218.94	-0.000
219.41	2.775
219.89	-0.000
220.36	1.547
220.83	2.132
221.30	-0.000
221.77	-0.000
222.24	1.455
222.71	-0.000
223.18	-0.000
223.65	1.794
224.12	-0.000
224.59	1.939
225.06	-0.000
225.54	2.000
226.01	-0.000
226.48	-0.000
226.95	-0.000
227.42	2.048
227.89	-0.000
228.36	-0.000
228.83	-0.000
229.30	-0.000
229.77	-0.000
230.24	1.962
230.71	-0.000
231.18	-0.000
231.65	-0.000
232.12	-0.000
232.59	-0.000
233.06	-0.000
233.53	-0.000
234.00	2.575
234.47	-0.000
234.94	-0.000
235.41	-0.000
235.88	-0.000
236.35	-0.000
236.82	-0.000
237.29	-0.000
237.76	-0.000
238.23	-0.000
238.70	-0.000
239.17	2.525
239.64	-0.000
240.11	-0.000
240.58	2.870
241.05	-0.000
241.52	-0.000
241.99	3.791
242.46	2.953
242.93	3.036
243.40	-0.000
243.87	-0.000
244.34	2.444
244.81	-0.000
245.28	-0.000
245.75	2.704
246.22	-0.000
246.69	-0.000
247.16	3.154
247.63	3.897
248.10	-0.000
248.57	-0.000
249.04	-0.000
249.51	3.027
249.98	-0.000
250.45	-0.000
250.92	3.360
251.39	2.968
251.85	2.740
252.32	2.209
252.79	2.162
253.26	2.057
253.73	1.860
254.20	1.693
254.67	1.573
255.14	1.559
255.61	1.483
256.08	1.387
256.55	1.331
257.02	1.288
257.49	1.229
257.95	1.189
258.42	1.139
258.89	1.118
259.36	1.077
259.83	1.052
260.30	1.028
260.77	0.997
261.24	0.963
261.71	0.953
262.17	0.934
262.64	0.912
263.11	0.893
263.58	0.875
264.05	0.863
264.52	0.845
264.99	0.833
265.46	0.816
265.92	0.801
266.39	0.791
266.86	0.779
267.33	0.771
267.80	0.755
268.27	0.747
268.74	0.739
269.20	0.727
269.67	0.716
270.14	0.709
270.61	0.698
271.08	0.692
271.55	0.685
272.01	0.681
272.48	0.669
272.95	0.660
273.42	0.655
273.89	0.656
274.36	0.645
274.82	0.639
275.29	0.632
275.76	0.629
276.23	0.624
276.70	0.613
277.16	0.612
277.63	0.607
278.10	0.601
278.57	0.598
279.04	0.600
279.50	0.594
279.97	0.585
280.44	0.588
280.91	0.583
281.38	0.580
281.84	0.577
282.31	0.574
282.78	0.574
283.25	0.570
283.72	0.569
284.18	0.570
284.65	0.568
285.12	0.567
285.59	0.565
286.05	0.561
286.52	0.564
286.99	0.562
287.46	0.561
287.92	0.562
288.39	0.560
288.86	0.556
289.33	0.559
289.79	0.556
290.26	0.556
290.73	0.556
291.20	0.550
291.66	0.546
292.13	0.545
292.60	0.541
293.07	0.537
293.53	0.528
294.00	0.529
294.47	0.523
294.93	0.519
295.40	0.507
295.87	0.507
296.34	0.497
296.80	0.493
297.27	0.484
297.74	0.476
298.20	0.472
298.67	0.461
299.14	0.457
299.60	0.449
300.07	0.440
300.54	0.437
301.01	0.429
301.47	0.421
301.94	0.415
302.41	0.408
302.87	0.399
303.34	0.392
303.81	0.387
304.27	0.384
304.74	0.378
305.21	0.369
305.67	0.365
306.14	0.358
306.61	0.350
307.07	0.345
307.54	0.345
308.01	0.338
308.47	0.334
308.94	0.328
309.40	0.326
309.87	0.325
310.34	0.320
310.80	0.315
311.27	0.309
311.74	0.307
312.20	0.303
312.67	0.304
313.13	0.296
313.60	0.296
314.07	0.293
314.53	0.291
315.00	0.288
315.47	0.286
315.93	0.287
316.40	0.283
316.86	0.281
317.33	0.279
317.80	0.278
318.26	0.276
318.73	0.276
319.19	0.277
319.66	0.273
320.13	0.271
320.59	0.269
321.06	0.271
321.52	0.267
321.99	0.266
322.45	0.263
322.92	0.262
323.39	0.262
323.85	0.261
324.32	0.258
324.78	0.255
325.25	0.255
325.71	0.254
326.18	0.252
326.64	0.247
327.11	0.246
327.58	0.245
328.04	0.249
328.51	0.245
328.97	0.243
329.44	0.243
329.90	0.238
330.37	0.236
330.83	0.237
331.30	0.236
331.76	0.232
332.23	0.234
332.69	0.229
333.16	0.230
333.62	0.224
334.09	0.225
334.56	0.222
335.02	0.219
335.49	0.217
335.95	0.213
336.42	0.214
336.88	0.211
337.35	0.210
337.81	0.209
338.28	0.211
338.74	0.208
339.20	0.209
339.67	0.208
340.13	0.211
340.60	0.203
341.06	0.200
341.53	0.199
341.99	0.200
342.46	0.198
342.92	0.195
343.39	0.193
343.85	0.193
344.32	0.190
344.78	0.191
345.25	0.195
345.71	0.191
346.17	0.193
346.64	0.194
347.10	0.191
347.57	0.186
348.03	0.185
348.50	0.182
348.96	0.186
349.43	0.186
349.89	0.186
350.35	0.185
350.82	0.182
351.28	0.184
351.75	0.185
352.21	0.187
352.67	0.180
353.14	0.182
353.60	0.177
354.07	0.176
354.53	0.176
355.00	0.175
355.46	0.175
355.92	0.171
356.39	0.171
356.85	0.169
357.31	0.163
357.78	0.164
358.24	0.163
358.71	0.165
359.17	0.165
359.63	0.163
360.10	0.163
360.56	0.164
361.03	0.161
361.49	0.165
361.95	0.161
362.42	0.159
362.88	0.162
363.34	0.161
363.81	0.161
364.27	0.161
364.73	0.161
365.20	0.160
365.66	0.161
366.12	0.163
366.59	0.160
367.05	0.159
367.51	0.159
367.98	0.159
368.44	0.156
368.90	0.156
369.37	0.157
369.83	0.157
370.29	0.154
370.76	0.154
371.22	0.153
371.68	0.156
372.15	0.153
372.61	0.149
373.07	0.153
373.54	0.151
374.00	0.150
374.46	0.152
374.92	0.151
375.39	0.150
375.85	0.151
376.31	0.152
376.78	0.151
377.24	0.149
377.70	0.151
378.16	0.150
378.63	0.149
379.09	0.149
379.55	0.148
380.01	0.150
380.48	0.151
380.94	0.149
381.40	0.147
381.87	0.150
382.33	0.148
382.79	0.146
383.25	0.148
383.72	0.149
384.18	0.145
384.64	0.149
385.10	0.148
385.56	0.146
386.03	0.148
386.49	0.145
386.95	0.144
387.41	0.143
387.88	0.142
388.34	0.143
388.80	0.145
389.26	0.145
389.72	0.146
390.19	0.145
390.65	0.140
391.11	0.142
391.57	0.142
392.04	0.142
392.50	0.142
392.96	0.141
393.42	0.143
393.88	0.145
394.34	0.141
394.81	0.143
395.27	0.140
395.73	0.138
396.19	0.140
396.65	0.141
397.12	0.139
397.58	0.138
398.04	0.138
398.50	0.138
398.96	0.141
399.42	0.141
399.89	0.143
400.35	0.142
400.81	0.139
401.27	0.140
401.73	0.140
402.19	0.140
402.65	0.135
403.12	0.134
403.58	0.137
404.04	0.135
404.50	0.132
404.96	0.134
405.42	0.135
405.88	0.135
406.34	0.137
406.81	0.137
407.27	0.132
407.73	0.132
408.19	0.133
408.65	0.131
409.11	0.133
409.57	0.130
410.03	0.133
410.49	0.132
410.96	0.130
411.42	0.130
411.88	0.129
412.34	0.126
412.80	0.128
413.26	0.130
413.72	0.126
414.18	0.126
414.64	0.129
415.10	0.130
415.56	0.130
416.02	0.130
416.48	0.128
416.95	0.132
417.41	0.127
417.87	0.128
418.33	0.128
418.79	0.127
419.25	0.129
419.71	0.127
420.17	0.125
420.63	0.122
421.09	0.124
421.55	0.122
422.01	0.126
422.47	0.129
422.93	0.129
423.39	0.127
423.85	0.124
424.31	0.126
424.77	0.127
425.23	0.126
425.69	0.127
426.15	0.128
426.61	0.127
427.07	0.124
427.53	0.123
427.99	0.125
428.45	0.126
428.91	0.123
429.37	0.119
429.83	0.120
430.29	0.123
430.75	0.126
431.21	0.128
431.67	0.129
432.13	0.126
432.59	0.124
433.05	0.124
433.51	0.120
433.97	0.119
434.43	0.128
434.89	0.129
435.35	0.124
435.81	0.126
436.27	0.126
436.73	0.122
437.19	0.127
437.65	0.124
438.11	0.123
438.57	0.122
439.03	0.124
439.48	0.125
439.94	0.127
440.40	0.122
440.86	0.121
441.32	0.119
441.78	0.119
442.24	0.125
442.70	0.124
443.16	0.120
443.62	0.124
444.08	0.117
444.54	0.120
444.99	0.120
445.45	0.120
445.91	0.119
446.37	0.121
446.83	0.121
447.29	0.120
447.75	0.119
448.21	0.124
448.67	0.120
449.12	0.120
449.58	0.120
450.04	0.122
450.50	0.119
450.96	0.118
451.42	0.118
451.88	0.120
452.34	0.118
452.79	0.120
453.25	0.121
453.71	0.121
454.17	0.117
454.63	0.122
455.09	0.119
455.55	0.120
456.00	0.119
456.46	0.121
456.92	0.118
457.38	0.118
457.84	0.117
458.30	0.119
458.75	0.116
459.21	0.118
459.67	0.117
460.13	0.117
460.59	0.117
461.04	0.116
461.50	0.116
461.96	0.117
462.42	0.115
462.88	0.115
463.33	0.113
463.79	0.116
464.25	0.116
464.71	0.118
465.17	0.117
465.62	0.117
466.08	0.117
466.54	0.119
467.00	0.118
467.46	0.118
467.91	0.119
468.37	0.117
468.83	0.117
469.29	0.119
469.74	0.119
470.20	0.118
470.66	0.118
471.12	0.117
471.57	0.119
472.03	0.117
472.49	0.117
472.95	0.121
473.40	0.115
473.86	0.118
474.32	0.117
474.78	0.119
475.23	0.119
475.69	0.119
476.15	0.119
476.60	0.120
477.06	0.118
477.52	0.117
477.98	0.116
478.43	0.118
478.89	0.118
479.35	0.120
479.80	0.119
480.26	0.116
480.72	0.118
481.18	0.117
481.63	0.117
482.09	0.116
482.55	0.116
483.00	0.115
483.46	0.116
483.92	0.115
484.37	0.115
484.83	0.114
485.29	0.118
485.74	0.115
486.20	0.115
486.66	0.117
487.11	0.117
487.57	0.114
488.03	0.114
488.48	0.117
488.94	0.115
489.40	0.115
489.85	0.115
490.31	0.116
490.77	0.114
491.22	0.117
491.68	0.113
492.13	0.115
492.59	0.117
493.05	0.115
493.50	0.115
493.96	0.113
494.42	0.117
494.87	0.115
495.33	0.115
495.78	0.114
496.24	0.116
496.70	0.117
497.15	0.115
497.61	0.115
498.06	0.114
498.52	0.114
498.98	0.116
499.43	0.116
499.89	0.116
500.34	0.113
500.80	0.114
501.25	0.113
501.71	0.115
502.17	0.113
502.62	0.114
503.08	0.111
503.53	0.114
503.99	0.113
504.44	0.113
504.90	0.111
505.36	0.114
505.81	0.115
506.27	0.112
506.72	0.113
507.18	0.114
507.63	0.111
508.09	0.113
508.54	0.111
509.00	0.114
509.45	0.112
509.91	0.113
510.36	0.114
510.82	0.115
511.27	0.112
511.73	0.112
512.19	0.113
512.64	0.112
513.10	0.114
513.55	0.113
514.01	0.114
514.46	0.113
514.92	0.112
515.37	0.115
515.83	0.112
516.28	0.113
516.73	0.111
517.19	0.111
517.64	0.111
518.10	0.112
518.55	0.111
519.01	0.112
519.46	0.110
519.92	0.110
520.37	0.108
520.83	0.112
521.28	0.110
521.74	0.110
522.19	0.111
522.65	0.109
523.10	0.110
523.55	0.112
524.01	0.110
524.46	0.111
524.92	0.110
525.37	0.112
525.83	0.112
526.28	0.112
526.73	0.111
527.19	0.113
527.64	0.110
528.10	0.112
528.55	0.112
529.01	0.114
529.46	0.111
529.91	0.111
530.37	0.111
530.82	0.110
531.28	0.112
531.73	0.111
532.18	0.113
532.64	0.111
533.09	0.113
533.54	0.109
534.00	0.114
534.45	0.111
534.91	0.110
535.36	0.109
535.81	0.109
536.27	0.110
536.72	0.110
537.17	0.112
537.63	0.113
538.08	0.114
538.54	0.113
538.99	0.113
539.44	0.112
539.90	0.114
540.35	0.114
540.80	0.111
541.26	0.114
541.71	0.116
542.16	0.114
542.62	0.117
543.07	0.115
543.52	0.115
543.98	0.115
544.43	0.115
544.88	0.115
545.34	0.115
545.79	0.117
546.24	0.116
546.69	0.117
547.15	0.118
547.60	0.116
548.05	0.117
548.51	0.116
548.96	0.118
549.41	0.117
549.86	0.118
550.32	0.119
550.77	0.118
551.22	0.120
551.68	0.119
552.13	0.120
552.58	0.118
553.03	0.121
553.49	0.120
553.94	0.120
554.39	0.122
554.84	0.123
555.30	0.121
555.75	0.123
556.20	0.123
556.65	0.125
557.11	0.124
557.56	0.124
558.01	0.125
558.46	0.125
558.92	0.125
559.37	0.127
559.82	0.125
560.27	0.126
560.72	0.126
561.18	0.126
561.63	0.128
562.08	0.128
562.53	0.128
562.99	0.130
563.44	0.130
563.89	0.131
564.34	0.131
564.79	0.133
565.25	0.134
565.70	0.132
566.15	0.132
566.60	0.134
567.05	0.135
567.50	0.135
567.96	0.135
568.41	0.135
568.86	0.136
569.31	0.135
569.76	0.137
570.21	0.139
570.67	0.134
571.12	0.138
571.57	0.138
572.02	0.141
572.47	0.140
572.92	0.141
573.37	0.143
573.83	0.143
574.28	0.143
574.73	0.143
575.18	0.144
575.63	0.144
576.08	0.145
576.53	0.145
576.98	0.148
577.44	0.148
577.89	0.147
578.34	0.150
578.79	0.151
579.24	0.151
579.69	0.150
580.14	0.153
580.59	0.154
581.04	0.155
581.49	0.155
581.95	0.156
582.40	0.158
582.85	0.160
583.30	0.161
583.75	0.162
584.20	0.161
584.65	0.162
585.10	0.165
585.55	0.166
586.00	0.167
586.45	0.169
586.90	0.171
587.35	0.171
587.80	0.174
588.25	0.173
588.71	0.175
589.16	0.179
589.61	0.176
590.06	0.179
590.51	0.178
590.96	0.181
591.41	0.184
591.86	0.186
592.31	0.186
592.76	0.187
593.21	0.188
593.66	0.190
594.11	0.192
594.56	0.196
595.01	0.195
595.46	0.196
595.91	0.198
596.36	0.201
596.81	0.201
597.26	0.203
597.71	0.205
598.16	0.207
598.61	0.208
599.06	0.211
599.51	0.210
599.96	0.213
600.41	0.215
600.86	0.217
601.31	0.217
601.76	0.220
602.21	0.223
602.65	0.222
603.10	0.223
603.55	0.224
604.00	0.228
604.45	0.227
604.90	0.229
605.35	0.232
605.80	0.232
606.25	0.233
606.70	0.235
607.15	0.234
607.60	0.237
608.05	0.238
608.50	0.241
608.95	0.242
609.39	0.242
609.84	0.244
610.29	0.245
610.74	0.246
611.19	0.245
611.64	0.247
612.09	0.247
612.54	0.249
612.99	0.248
613.44	0.248
613.88	0.250
614.33	0.250
614.78	0.254
615.23	0.255
615.68	0.254
616.13	0.255
616.58	0.256
617.03	0.257
617.47	0.257
617.92	0.258
618.37	0.259
618.82	0.257
619.27	0.259
619.72	0.261
620.17	0.260
620.61	0.260
621.06	0.261
621.51	0.259
621.96	0.263
622.41	0.262
622.86	0.261
623.30	0.263
623.75	0.263
624.20	0.266
624.65	0.265
625.10	0.268
625.54	0.264
625.99	0.266
626.44	0.269
626.89	0.269
627.34	0.269
627.78	0.270
628.23	0.272
628.68	0.272
629.13	0.274
629.58	0.275
630.02	0.277
630.47	0.278
630.92	0.278
631.37	0.282
631.81	0.284
632.26	0.282
632.71	0.284
633.16	0.286
633.61	0.288
634.05	0.290
634.50	0.290
634.95	0.293
635.40	0.294
635.84	0.295
636.29	0.299
636.74	0.301
637.18	0.303
637.63	0.306
638.08	0.306
638.53	0.308
638.97	0.309
639.42	0.314
639.87	0.313
640.32	0.317
640.76	0.320
641.21	0.322
641.66	0.324
642.10	0.327
642.55	0.330
643.00	0.330
643.44	0.332
643.89	0.336
644.34	0.339
644.79	0.342
645.23	0.343
645.68	0.348
646.13	0.350
646.57	0.352
647.02	0.355
647.47	0.360
647.91	0.359
648.36	0.364
648.81	0.366
649.25	0.366
649.70	0.371
650.15	0.373
650.59	0.375
651.04	0.379
651.48	0.379
651.93	0.383
652.38	0.384
652.82	0.388
653.27	0.386
653.72	0.392
654.16	0.392
654.61	0.395
655.06	0.396
655.50	0.397
655.95	0.394
656.39	0.394
656.84	0.407
657.29	0.409
657.73	0.407
658.18	0.406
658.62	0.406
659.07	0.411
659.52	0.412
659.96	0.413
660.41	0.416
660.85	0.415
661.30	0.414
661.74	0.415
662.19	0.418
662.64	0.418
663.08	0.417
663.53	0.417
663.97	0.416
664.42	0.415
664.86	0.418
665.31	0.419
665.75	0.415
666.20	0.414
666.65	0.416
667.09	0.417
667.54	0.414
667.98	0.411
668.43	0.410
668.87	0.409
669.32	0.406
669.76	0.403
670.21	0.400
670.65	0.397
671.10	0.392
671.54	0.392
671.99	0.387
672.43	0.381
672.88	0.379
673.32	0.376
673.77	0.370
674.21	0.366
674.66	0.360
675.10	0.356
675.55	0.347
675.99	0.340
676.44	0.339
676.88	0.331
677.33	0.325
677.77	0.320
678.22	0.315
678.66	0.308
679.11	0.301
679.55	0.294
679.99	0.285
680.44	0.281
680.88	0.275
681.33	0.266
681.77	0.261
682.22	0.253
682.66	0.250
683.11	0.242
683.55	0.236
683.99	0.229
684.44	0.224
684.88	0.219
685.33	0.214
685.77	0.207
686.21	0.202
686.66	0.197
687.10	0.192
687.55	0.186
687.99	0.181
688.44	0.177
688.88	0.171
689.32	0.168
689.77	0.164
690.21	0.161
690.65	0.156
691.10	0.151
691.54	0.148
691.99	0.145
692.43	0.145
692.87	0.140
693.32	0.136
693.76	0.132
694.20	0.130
694.65	0.129
695.09	0.125
695.53	0.122
695.98	0.121
696.42	0.119
696.86	0.116
697.31	0.115
697.75	0.112
698.19	0.111
698.64	0.109
699.08	0.107
699.52	0.106
699.97	0.104
700.41	0.103
700.85	0.103
701.30	0.099
701.74	0.099
702.18	0.096
702.63	0.097
703.07	0.096
703.51	0.095
703.96	0.094
704.40	0.095
704.84	0.095
705.28	0.091
705.73	0.092
706.17	0.088
706.61	0.090
707.06	0.088
707.50	0.090
707.94	0.089
708.38	0.086
708.83	0.088
709.27	0.088
709.71	0.088
710.15	0.085
710.60	0.088
711.04	0.082
711.48	0.086
711.92	0.083
712.37	0.082
712.81	0.082
713.25	0.084
713.69	0.082
714.13	0.080
714.58	0.082
715.02	0.082
715.46	0.080
715.90	0.080
716.35	0.078
716.79	0.080
717.23	0.082
717.67	0.082
718.11	0.081
718.56	0.081
719.00	0.081
719.44	0.080
719.88	0.084
720.32	0.082
720.76	0.079
721.21	0.082
721.65	0.079
722.09	0.080
722.53	0.081
722.97	0.079
723.41	0.081
723.86	0.081
724.30	0.081
724.74	0.083
725.18	0.080
725.62	0.080
726.06	0.082
726.50	0.082
726.95	0.083
727.39	0.082
727.83	0.080
728.27	0.082
728.71	0.081
729.15	0.082
729.59	0.081
730.03	0.082
730.48	0.082
730.92	0.083
731.36	0.080
731.80	0.082
732.24	0.083
732.68	0.083
733.12	0.083
733.56	0.084
734.00	0.085
734.44	0.082
734.89	0.085
735.33	0.082
735.77	0.084
736.21	0.084
736.65	0.081
737.09	0.086
737.53	0.086
737.97	0.084
738.41	0.084
738.85	0.084
739.29	0.084
739.73	0.086
740.17	0.081
740.61	0.083
741.05	0.085
741.49	0.086
741.93	0.084
742.37	0.085
742.81	0.084
743.26	0.085
743.70	0.083
744.14	0.084
744.58	0.085
745.02	0.085
745.46	0.082
745.90	0.079
746.34	0.083
746.78	0.087
747.22	0.084
747.66	0.083
748.10	0.083
748.54	0.083
748.98	0.085
749.42	0.084
749.86	0.083
750.29	0.084
750.73	0.084
751.17	0.084
751.61	0.085
752.05	0.082
752.49	0.083
752.93	0.082
753.37	0.086
753.81	0.084
754.25	0.083
754.69	0.084
755.13	0.085
755.57	0.083
756.01	0.082
756.45	0.083
756.89	0.085
757.33	0.083
757.77	0.082
758.21	0.082
758.64	0.079
759.08	0.081
759.52	0.081
759.96	0.083
760.40	0.081
760.84	0.080
761.28	0.082
761.72	0.081
762.16	0.080
762.60	0.083
763.03	0.083
763.47	0.080
763.91	0.083
764.35	0.080
764.79	0.082
765.23	0.083
765.67	0.078
766.11	0.082
766.54	0.081
766.98	0.079
767.42	0.082
767.86	0.086
768.30	0.080
768.74	0.083
769.17	0.083
769.61	0.084
770.05	0.082
770.49	0.084
770.93	0.080
771.37	0.083
771.80	0.077
772.24	0.077
772.68	0.082
773.12	0.081
773.56	0.082
774.00	0.083
774.43	0.084
774.87	0.080
775.31	0.083
775.75	0.079
776.19	0.082
776.62	0.081
777.06	0.081
777.50	0.082
777.94	0.080
778.37	0.082
778.81	0.080
779.25	0.079
779.69	0.083
780.13	0.082
780.56	0.079
781.00	0.082
781.44	0.079
781.88	0.082
782.31	0.079
782.75	0.078
783.19	0.081
783.63	0.082
784.06	0.080
784.50	0.083
784.94	0.084
785.37	0.079
785.81	0.079
786.25	0.081
786.69	0.083
787.12	0.081
787.56	0.081
788.00	0.082
788.43	0.083
788.87	0.082
789.31	0.084
789.75	0.082
790.18	0.081
790.62	0.081
791.06	0.080
791.49	0.083
791.93	0.076
792.37	0.078
792.80	0.082
793.24	0.082
793.68	0.082
794.11	0.082
794.55	0.082
794.99	0.079
795.42	0.084
795.86	0.083
796.30	0.083
796.73	0.080
797.17	0.078
797.61	0.082
798.04	0.080
798.48	0.082
798.91	0.080
799.35	0.081
799.79	0.079
800.22	0.082
800.66	0.081
801.10	0.085
801.53	0.086
801.97	0.084
802.40	0.077
802.84	0.077
803.28	0.082
803.71	0.080
804.15	0.084
804.58	0.085
805.02	0.082
805.46	0.077
805.89	0.082
806.33	0.085
806.76	0.080
807.20	0.084
807.63	0.082
808.07	0.082
808.51	0.080
808.94	0.080
809.38	0.081
809.81	0.085
810.25	0.082
810.68	0.083
811.12	0.082
811.55	0.084
811.99	0.084
812.42	0.083
812.86	0.081
813.29	0.082
813.73	0.084
814.17	0.076
814.60	0.081
815.04	0.076
815.47	0.077
815.91	0.079
816.34	0.082
816.78	0.084
817.21	0.084
817.65	0.080
818.08	0.081
818.52	0.080
818.95	0.083
819.39	0.086
819.82	0.084
820.25	0.083
820.69	0.084
821.12	0.085
821.56	0.085
821.99	0.086
822.43	0.084
822.86	0.084
823.30	0.080
823.73	0.081
824.17	0.090
824.60	0.084
825.04	0.083
825.47	0.082
825.90	0.081
826.34	0.083
826.77	0.084
827.21	0.085
827.64	0.086
828.08	0.091
828.51	0.085
828.94	0.086
829.38	0.085
829.81	0.090
830.25	0.091
830.68	0.088
831.11	0.085
831.55	0.090
831.98	0.090
832.42	0.087
832.85	0.091
833.28	0.089
833.72	0.093
834.15	0.092
834.58	0.087
835.02	0.090
835.45	0.094
835.88	0.095
836.32	0.092
836.75	0.090
837.19	0.089
837.62	0.088
838.05	0.095
838.49	0.089
838.92	0.092
839.35	0.092
839.79	0.089
840.22	0.089
840.65	0.087
841.09	0.095
841.52	0.093
841.95	0.091
842.39	0.094
842.82	0.096
843.25	0.094
843.68	0.090
844.12	0.093
844.55	0.088
844.98	0.094
845.42	0.089
845.85	0.094
846.28	0.096
846.71	0.088
847.15	0.088
847.58	0.098
848.01	0.091
848.45	0.092
848.88	0.090
849.31	0.093
849.74	0.093
850.18	0.087
850.61	0.095
851.04	0.094
851.47	0.093
851.91	0.088
852.34	0.093
852.77	0.091
853.20	0.096
853.64	0.097
854.07	0.094
854.50	0.095
854.93	0.087
855.36	0.096
855.80	0.095
856.23	0.096
856.66	0.097
857.09	0.103
857.52	0.098
857.96	0.095
858.39	0.101
858.82	0.096
859.25	0.097
859.68	0.099
860.12	0.096
860.55	0.093
860.98	0.092
861.41	0.099
861.84	0.101
862.27	0.094
862.71	0.100
863.14	0.097
863.57	0.099
864.00	0.096
864.43	0.093
864.86	0.099
865.30	0.100
865.73	0.100
866.16	0.096
866.59	0.103
867.02	0.094
867.45	0.095
867.88	0.101
868.31	0.100
868.75	0.094
869.18	0.101
869.61	0.103
870.04	0.102
870.47	0.100
870.90	0.106
871.33	0.101
871.76	0.094
872.19	0.094
872.62	0.105
873.06	0.101
873.49	0.097
873.92	0.101
874.35	0.103
874.78	0.106
875.21	0.097
875.64	0.102
876.07	0.103
876.50	0.104
876.93	0.100
877.36	0.102
877.79	0.100
878.22	0.097
878.65	0.104
879.08	0.106
879.51	0.100
879.94	0.102
880.37	0.102
880.80	0.104
881.23	0.101
881.67	0.100
882.10	0.106
882.53	0.103
882.96	0.104
883.39	0.109
883.82	0.108
884.25	0.107
884.68	0.105
885.11	0.103
885.54	0.108
885.97	0.095
886.39	0.102
886.82	0.104
887.25	0.104
887.68	0.105
888.11	0.100
888.54	0.100
888.97	0.100
889.40	0.105
889.83	0.106
890.26	0.105
890.69	0.102
891.12	0.105
891.55	0.106
891.98	0.104
892.41	0.107
892.84	0.107
893.27	0.106
893.70	0.102
894.13	0.105
894.56	0.108
894.98	0.106
895.41	0.104
895.84	0.112
896.27	0.104
896.70	0.108
897.13	0.099
897.56	0.105
897.99	0.107
898.42	0.107
898.85	0.108
899.27	0.111
899.70	0.110
900.13	0.107
900.56	0.109
900.99	0.106
901.42	0.102
901.85	0.108
902.28	0.113
902.70	0.108
903.13	0.104
903.56	0.111
903.99	0.105
904.42	0.108
904.85	0.107
905.27	0.109
905.70	0.108
906.13	0.106
906.56	0.109
906.99	0.110
907.42	0.104
907.84	0.108
908.27	0.112
908.70	0.107
909.13	0.106
909.56	0.105
909.98	0.107
910.41	0.106
910.84	0.104
911.27	0.104
911.70	0.108
912.12	0.103
912.55	0.106
912.98	0.101
913.41	0.106
913.84	0.104
914.26	0.107
914.69	0.104
915.12	0.108
915.55	0.102
915.97	0.107
916.40	0.107
916.83	0.104
917.26	0.105
917.68	0.108
918.11	0.107
918.54	0.109
918.97	0.107
919.39	0.107
919.82	0.110
920.25	0.104
920.67	0.108
921.10	0.107
921.53	0.107
921.96	0.104
922.38	0.112
922.81	0.110
923.24	0.112
923.66	0.110
924.09	0.109
924.52	0.113
924.94	0.110
925.37	0.116
925.80	0.113
926.22	0.116
926.65	0.116
927.08	0.109
927.50	0.117
927.93	0.120
928.36	0.120
928.78	0.118
929.21	0.120
929.64	0.120
930.06	0.122
930.49	0.125
930.92	0.120
931.34	0.126
931.77	0.125
932.20	0.123
932.62	0.125
933.05	0.125
933.47	0.125
933.90	0.129
934.33	0.133
934.75	0.130
935.18	0.132
935.61	0.136
936.03	0.133
936.46	0.140
936.88	0.141
937.31	0.143
937.73	0.147
938.16	0.147
938.59	0.146
939.01	0.153
939.44	0.152
939.86	0.156
940.29	0.153
940.71	0.163
941.14	0.167
941.57	0.166
941.99	0.165
942.42	0.170
942.84	0.171
943.27	0.170
943.69	0.169
944.12	0.174
944.54	0.182
944.97	0.177
945.39	0.186
945.82	0.190
946.24	0.181
946.67	0.183
947.09	0.193
947.52	0.190
947.94	0.193
948.37	0.192
948.79	0.198
949.22	0.198
949.64	0.191
950.07	0.199
950.49	0.203
950.92	0.207
951.34	0.206
951.77	0.210
952.19	0.212
952.62	0.215
953.04	0.215
953.47	0.221
953.89	0.230
954.32	0.222
954.74	0.230
955.17	0.225
955.59	0.231
956.01	0.238
956.44	0.243
956.86	0.239
957.29	0.242
957.71	0.250
958.14	0.248
958.56	0.247
958.98	0.254
959.41	0.260
959.83	0.258
960.26	0.261
960.68	0.269
961.10	0.265
961.53	0.267
961.95	0.260
962.38	0.273
962.80	0.272
963.22	0.267
963.65	0.267
964.07	0.274
964.50	0.272
964.92	0.270
965.34	0.268
965.77	0.272
966.19	0.266
966.61	0.268
967.04	0.275
967.46	0.282
967.88	0.265
968.31	0.273
968.73	0.279
969.15	0.280
969.58	0.275
970.00	0.271
970.42	0.282
970.85	0.278
971.27	0.278
971.69	0.283
972.12	0.278
972.54	0.281
972.96	0.280
973.39	0.280
973.81	0.281
974.23	0.281
974.65	0.282
975.08	0.286
975.50	0.281
975.92	0.286
976.35	0.280
976.77	0.283
977.19	0.282
977.61	0.279
978.04	0.280
978.46	0.274
978.88	0.288
979.30	0.281
979.73	0.281
980.15	0.284
980.57	0.281
980.99	0.281
981.42	0.281
981.84	0.283
982.26	0.288
982.68	0.283
983.11	0.283
983.53	0.287
983.95	0.279
984.37	0.278
984.79	0.279
985.22	0.279
985.64	0.283
986.06	0.268
986.48	0.279
986.90	0.275
987.33	0.281
987.75	0.276
988.17	0.282
988.59	0.273
989.01	0.270
989.43	0.273
989.86	0.276
990.28	0.268
990.70	0.269
991.12	0.264
991.54	0.272
991.96	0.272
992.39	0.259
992.81	0.270
993.23	0.264
993.65	0.261
994.07	0.265
994.49	0.265
994.91	0.260
995.34	0.259
995.76	0.259
996.18	0.264
996.60	0.260
997.02	0.260
997.44	0.262
997.86	0.253
998.28	0.257
998.70	0.261
999.12	0.257
999.55	0.255
999.97	0.256
1000.39	0.257
1000.81	0.256
1001.23	0.250
1001.65	0.252
1002.07	0.248
1002.49	0.247
1002.91	0.248
1003.33	0.257
1003.75	0.248
1004.17	0.253
1004.59	0.252
1005.01	0.246
1005.43	0.245
1005.85	0.250
1006.28	0.242
1006.70	0.247
1007.12	0.245
1007.54	0.243
1007.96	0.249
1008.38	0.245
1008.80	0.244
1009.22	0.244
1009.64	0.243
1010.06	0.238
1010.48	0.232
1010.90	0.244
1011.32	0.242
1011.74	0.237
1012.16	0.231
1012.58	0.242
1013.00	0.219
1013.42	0.231
1013.84	0.231
1014.26	0.231
1014.67	0.227
1015.09	0.223
1015.51	0.238
1015.93	0.231
1016.35	0.212
1016.77	0.225
1017.19	0.229
1017.61	0.217
1018.03	0.221
1018.45	0.228
1018.87	0.223
1019.29	0.215
1019.71	0.213
1020.13	0.222
1020.55	0.220
1020.97	0.225
1021.38	0.225
1021.80	0.212
1022.22	0.214
1022.64	0.209
1023.06	0.216
1023.48	0.215
1023.90	0.213
1024.32	0.204
1024.74	0.202
1025.15	0.209
1025.57	0.214
1025.99	0.216
1026.41	0.223
1026.83	0.208
1027.25	0.212
1027.67	0.211
1028.08	0.203
1028.50	0.206
1028.92	0.216
1029.34	0.202
1029.76	0.204
1030.18	0.201
1030.60	0.208
1031.01	0.207
1031.43	0.193
1031.85	0.201
1032.27	0.210
1032.69	0.201
1033.10	0.192
1033.52	0.210
1033.94	0.208
1034.36	0.203
1034.78	0.212
1035.19	0.191
1035.61	0.200
1036.03	0.186
1036.45	0.208
1036.87	0.214
1037.28	0.191
1037.70	0.197
1038.12	0.207
1038.54	0.187
1038.95	0.187
1039.37	0.200
1039.79	0.205
1040.21	0.191
1040.62	0.174
1041.04	0.205
1041.46	0.217
1041.88	0.198
1042.29	0.187
1042.71	0.200
1043.13	0.185
1043.55	0.196
1043.96	0.199
1044.38	0.205
1044.80	0.210
1045.21	0.208
1045.63	0.206
1046.05	0.212
1046.47	0.185
1046.88	0.195
1047.30	0.192
1047.72	0.211
1048.13	0.170
1048.55	0.209
1048.97	0.206
1049.38	0.192
1049.80	0.159
1050.22	0.211
1050.63	0.203
1051.05	0.182
1051.47	0.209
1051.88	0.193
1052.30	0.201
1052.72	0.170
1053.13	0.212
1053.55	0.206
1053.97	0.197
1054.38	0.203
1054.80	0.228
1055.21	0.208
1055.63	0.202
1056.05	0.205
1056.46	0.241
1056.88	0.221
1057.29	0.199
1057.71	0.245
1058.13	0.228
1058.54	0.252
1058.96	0.250
1059.37	0.264
1059.79	0.252
1060.21	0.219
1060.62	0.251
1061.04	0.349
1061.45	0.264
1061.87	0.248
1062.28	0.348
1062.70	0.270
1063.12	0.266
1063.53	0.290
1063.95	0.347
1064.36	0.294
1064.78	0.266
1065.19	0.330
1065.61	0.333
1066.02	0.264
1066.44	0.400
1066.85	0.474
1067.27	0.394
1067.68	0.311
1068.10	0.376
1068.51	0.397
1068.93	0.466
1069.35	0.405
1069.76	0.517
1070.17	0.447
1070.59	0.440
1071.00	0.503
1071.42	0.496
1071.83	0.426
1072.25	0.441
1072.66	0.971
1073.08	1.001
1073.49	0.665
1073.91	1.474
1074.32	-0.000
1074.74	1.394
1075.15	1.474
1075.57	0.894
1075.98	1.177
1076.40	0.838
1076.81	0.971
1077.22	-0.000
1077.64	-0.000
1078.05	1.055
1078.47	-0.000
1078.88	-0.000
1079.30	1.354
1079.71	-0.000
1080.12	-0.000
1080.54	-0.000
1080.95	-0.000
1081.37	-0.000
1081.78	-0.000
1082.19	-0.000
1082.61	-0.000
1083.02	-0.000
1083.44	-0.000
1083.85	-0.000
1084.26	-0.000
1084.68	-0.000
1085.09	-0.000
1085.50	-0.000
1085.92	-0.000
1086.33	-0.000
1086.74	-0.000
1087.16	-0.000
1087.57	-0.000
1087.98	-0.000
1088.40	-0.000
1088.81	-0.000
1089.22	-0.000
1089.64	-0.000
1090.05	-0.000
1090.46	-0.000
1090.88	-0.000
1091.29	-0.000
1091.70	-0.000
1092.12	-0.000
1092.53	-0.000
1092.94	-0.000
1093.36	-0.000
1093.77	-0.000
1094.18	-0.000
1094.59	-0.000
1095.01	-0.000
1095.42	-0.000
1095.83	-0.000
1096.25	-0.000
1096.66	-0.000
1097.07	-0.000
1097.48	-0.000
1097.90	-0.000
1098.31	-0.000
1098.72	-0.000
1099.13	-0.000
>>>>>End Processed Spectral Data<<<<<
