SpectraSuite Data File
++++++++++++++++++++++++++++++++++++
Date: Wed May 04 16:25:11 CEST 2016
User: spectrasuite
Dark Spectrum Present: Yes
Reference Spectrum Present: Yes
Number of Sampled Component Spectra: 1
Spectrometers: HR+C0708
Integration Time (usec): 1000 (HR+C0708)
Spectra Averaged: 10 (HR+C0708)
Boxcar Smoothing: 0 (HR+C0708)
Correct for Electrical Dark: No (HR+C0708)
Strobe/Lamp Enabled: No (HR+C0708)
Correct for Detector Non-linearity: No (HR+C0708)
Correct for Stray Light: No (HR+C0708)
Number of Pixels in Processed Spectrum: 2048
>>>>>Begin Processed Spectral Data<<<<<
188.76	-0.000
189.23	-0.000
189.70	-0.000
190.17	-0.000
190.64	-0.000
191.12	-0.000
191.59	-0.000
192.06	-0.000
192.53	-0.000
193.01	-0.000
193.48	-0.000
193.95	-0.000
194.42	-0.000
194.90	-0.000
195.37	-0.000
195.84	-0.000
196.31	-0.000
196.78	-0.000
197.26	-0.000
197.73	-0.000
198.20	-0.000
198.67	-0.000
199.14	-0.000
199.62	-0.000
200.09	-0.000
200.56	-0.000
201.03	-0.000
201.50	-0.000
201.97	-0.000
202.45	-0.000
202.92	-0.000
203.39	-0.000
203.86	-0.000
204.33	-0.000
204.80	-0.000
205.28	-0.000
205.75	-0.000
206.22	-0.000
206.69	-0.000
207.16	-0.000
207.63	-0.000
208.11	-0.000
208.58	-0.000
209.05	-0.000
209.52	-0.000
209.99	-0.000
210.46	1.250
210.93	-0.000
211.41	-0.000
211.88	-0.000
212.35	-0.000
212.82	-0.000
213.29	-0.000
213.76	-0.000
214.23	-0.000
214.70	-0.000
215.18	-0.000
215.65	1.006
216.12	-0.000
216.59	-0.000
217.06	2.052
217.53	-0.000
218.00	-0.000
218.47	-0.000
218.94	-0.000
219.41	-0.000
219.89	-0.000
220.36	1.736
220.83	-0.000
221.30	-0.000
221.77	-0.000
222.24	-0.000
222.71	-0.000
223.18	-0.000
223.65	1.463
224.12	-0.000
224.59	-0.000
225.06	-0.000
225.54	2.522
226.01	-0.000
226.48	-0.000
226.95	-0.000
227.42	-0.000
227.89	-0.000
228.36	-0.000
228.83	-0.000
229.30	-0.000
229.77	-0.000
230.24	-0.000
230.71	-0.000
231.18	1.841
231.65	-0.000
232.12	-0.000
232.59	-0.000
233.06	-0.000
233.53	-0.000
234.00	-0.000
234.47	-0.000
234.94	-0.000
235.41	-0.000
235.88	-0.000
236.35	2.619
236.82	-0.000
237.29	-0.000
237.76	-0.000
238.23	-0.000
238.70	-0.000
239.17	3.276
239.64	-0.000
240.11	-0.000
240.58	2.951
241.05	-0.000
241.52	-0.000
241.99	2.516
242.46	3.375
242.93	2.702
243.40	-0.000
243.87	-0.000
244.34	2.999
244.81	4.308
245.28	3.050
245.75	3.133
246.22	2.903
246.69	-0.000
247.16	3.104
247.63	3.022
248.10	3.056
248.57	-0.000
249.04	-0.000
249.51	2.900
249.98	-0.000
250.45	-0.000
250.92	2.694
251.39	2.858
251.85	2.491
252.32	2.230
252.79	2.166
253.26	1.968
253.73	1.836
254.20	1.731
254.67	1.606
255.14	1.558
255.61	1.466
256.08	1.395
256.55	1.330
257.02	1.287
257.49	1.219
257.95	1.177
258.42	1.140
258.89	1.105
259.36	1.072
259.83	1.047
260.30	1.028
260.77	0.996
261.24	0.967
261.71	0.952
262.17	0.929
262.64	0.908
263.11	0.889
263.58	0.875
264.05	0.861
264.52	0.844
264.99	0.828
265.46	0.822
265.92	0.802
266.39	0.791
266.86	0.778
267.33	0.774
267.80	0.756
268.27	0.749
268.74	0.737
269.20	0.723
269.67	0.722
270.14	0.711
270.61	0.703
271.08	0.692
271.55	0.689
272.01	0.684
272.48	0.672
272.95	0.662
273.42	0.657
273.89	0.656
274.36	0.648
274.82	0.642
275.29	0.635
275.76	0.629
276.23	0.625
276.70	0.617
277.16	0.618
277.63	0.612
278.10	0.607
278.57	0.602
279.04	0.600
279.50	0.597
279.97	0.592
280.44	0.589
280.91	0.592
281.38	0.586
281.84	0.582
282.31	0.583
282.78	0.583
283.25	0.578
283.72	0.579
284.18	0.578
284.65	0.574
285.12	0.571
285.59	0.571
286.05	0.574
286.52	0.573
286.99	0.571
287.46	0.571
287.92	0.571
288.39	0.568
288.86	0.572
289.33	0.569
289.79	0.566
290.26	0.563
290.73	0.563
291.20	0.561
291.66	0.559
292.13	0.555
292.60	0.552
293.07	0.547
293.53	0.539
294.00	0.538
294.47	0.533
294.93	0.532
295.40	0.523
295.87	0.518
296.34	0.506
296.80	0.501
297.27	0.496
297.74	0.488
298.20	0.480
298.67	0.473
299.14	0.467
299.60	0.460
300.07	0.452
300.54	0.444
301.01	0.438
301.47	0.427
301.94	0.423
302.41	0.414
302.87	0.409
303.34	0.403
303.81	0.395
304.27	0.392
304.74	0.382
305.21	0.375
305.67	0.370
306.14	0.362
306.61	0.360
307.07	0.353
307.54	0.349
308.01	0.344
308.47	0.338
308.94	0.333
309.40	0.332
309.87	0.329
310.34	0.325
310.80	0.321
311.27	0.318
311.74	0.312
312.20	0.309
312.67	0.309
313.13	0.305
313.60	0.301
314.07	0.302
314.53	0.298
315.00	0.292
315.47	0.292
315.93	0.292
316.40	0.288
316.86	0.286
317.33	0.285
317.80	0.284
318.26	0.282
318.73	0.281
319.19	0.284
319.66	0.279
320.13	0.274
320.59	0.275
321.06	0.275
321.52	0.271
321.99	0.273
322.45	0.268
322.92	0.269
323.39	0.267
323.85	0.265
324.32	0.265
324.78	0.261
325.25	0.259
325.71	0.259
326.18	0.257
326.64	0.255
327.11	0.253
327.58	0.254
328.04	0.254
328.51	0.250
328.97	0.251
329.44	0.246
329.90	0.244
330.37	0.245
330.83	0.244
331.30	0.241
331.76	0.238
332.23	0.238
332.69	0.238
333.16	0.236
333.62	0.233
334.09	0.231
334.56	0.228
335.02	0.226
335.49	0.224
335.95	0.219
336.42	0.220
336.88	0.216
337.35	0.212
337.81	0.214
338.28	0.214
338.74	0.213
339.20	0.215
339.67	0.216
340.13	0.213
340.60	0.211
341.06	0.208
341.53	0.204
341.99	0.206
342.46	0.204
342.92	0.201
343.39	0.200
343.85	0.198
344.32	0.198
344.78	0.195
345.25	0.198
345.71	0.199
346.17	0.200
346.64	0.201
347.10	0.197
347.57	0.194
348.03	0.191
348.50	0.191
348.96	0.192
349.43	0.194
349.89	0.191
350.35	0.190
350.82	0.192
351.28	0.192
351.75	0.192
352.21	0.190
352.67	0.187
353.14	0.191
353.60	0.188
354.07	0.187
354.53	0.184
355.00	0.182
355.46	0.181
355.92	0.175
356.39	0.179
356.85	0.176
357.31	0.171
357.78	0.171
358.24	0.175
358.71	0.173
359.17	0.173
359.63	0.169
360.10	0.169
360.56	0.169
361.03	0.169
361.49	0.170
361.95	0.167
362.42	0.169
362.88	0.170
363.34	0.170
363.81	0.166
364.27	0.169
364.73	0.165
365.20	0.168
365.66	0.167
366.12	0.168
366.59	0.167
367.05	0.167
367.51	0.166
367.98	0.166
368.44	0.164
368.90	0.164
369.37	0.165
369.83	0.165
370.29	0.163
370.76	0.163
371.22	0.163
371.68	0.162
372.15	0.162
372.61	0.159
373.07	0.160
373.54	0.156
374.00	0.158
374.46	0.159
374.92	0.158
375.39	0.159
375.85	0.160
376.31	0.157
376.78	0.156
377.24	0.156
377.70	0.156
378.16	0.155
378.63	0.159
379.09	0.156
379.55	0.156
380.01	0.160
380.48	0.156
380.94	0.156
381.40	0.155
381.87	0.157
382.33	0.152
382.79	0.152
383.25	0.156
383.72	0.156
384.18	0.155
384.64	0.156
385.10	0.153
385.56	0.153
386.03	0.155
386.49	0.154
386.95	0.152
387.41	0.152
387.88	0.150
388.34	0.150
388.80	0.152
389.26	0.151
389.72	0.152
390.19	0.149
390.65	0.149
391.11	0.149
391.57	0.150
392.04	0.149
392.50	0.148
392.96	0.149
393.42	0.149
393.88	0.152
394.34	0.148
394.81	0.149
395.27	0.149
395.73	0.143
396.19	0.147
396.65	0.146
397.12	0.143
397.58	0.146
398.04	0.141
398.50	0.146
398.96	0.147
399.42	0.148
399.89	0.148
400.35	0.148
400.81	0.144
401.27	0.146
401.73	0.144
402.19	0.146
402.65	0.141
403.12	0.144
403.58	0.146
404.04	0.140
404.50	0.140
404.96	0.140
405.42	0.141
405.88	0.142
406.34	0.143
406.81	0.142
407.27	0.140
407.73	0.137
408.19	0.137
408.65	0.136
409.11	0.138
409.57	0.136
410.03	0.142
410.49	0.138
410.96	0.138
411.42	0.140
411.88	0.135
412.34	0.133
412.80	0.133
413.26	0.135
413.72	0.136
414.18	0.134
414.64	0.138
415.10	0.133
415.56	0.137
416.02	0.136
416.48	0.135
416.95	0.136
417.41	0.134
417.87	0.135
418.33	0.132
418.79	0.132
419.25	0.135
419.71	0.132
420.17	0.129
420.63	0.129
421.09	0.127
421.55	0.128
422.01	0.133
422.47	0.135
422.93	0.136
423.39	0.132
423.85	0.133
424.31	0.134
424.77	0.131
425.23	0.133
425.69	0.135
426.15	0.137
426.61	0.131
427.07	0.128
427.53	0.128
427.99	0.129
428.45	0.132
428.91	0.128
429.37	0.127
429.83	0.128
430.29	0.129
430.75	0.134
431.21	0.132
431.67	0.136
432.13	0.135
432.59	0.128
433.05	0.130
433.51	0.125
433.97	0.125
434.43	0.133
434.89	0.135
435.35	0.127
435.81	0.130
436.27	0.131
436.73	0.129
437.19	0.132
437.65	0.127
438.11	0.130
438.57	0.130
439.03	0.129
439.48	0.131
439.94	0.128
440.40	0.130
440.86	0.125
441.32	0.127
441.78	0.128
442.24	0.131
442.70	0.130
443.16	0.128
443.62	0.130
444.08	0.127
444.54	0.129
444.99	0.128
445.45	0.125
445.91	0.124
446.37	0.126
446.83	0.124
447.29	0.126
447.75	0.122
448.21	0.128
448.67	0.128
449.12	0.127
449.58	0.126
450.04	0.130
450.50	0.125
450.96	0.122
451.42	0.125
451.88	0.126
452.34	0.123
452.79	0.126
453.25	0.127
453.71	0.127
454.17	0.126
454.63	0.125
455.09	0.127
455.55	0.124
456.00	0.121
456.46	0.128
456.92	0.124
457.38	0.125
457.84	0.125
458.30	0.125
458.75	0.123
459.21	0.122
459.67	0.120
460.13	0.124
460.59	0.121
461.04	0.123
461.50	0.122
461.96	0.123
462.42	0.120
462.88	0.122
463.33	0.122
463.79	0.123
464.25	0.121
464.71	0.124
465.17	0.124
465.62	0.124
466.08	0.126
466.54	0.127
467.00	0.122
467.46	0.123
467.91	0.125
468.37	0.124
468.83	0.126
469.29	0.124
469.74	0.124
470.20	0.123
470.66	0.123
471.12	0.124
471.57	0.123
472.03	0.124
472.49	0.123
472.95	0.125
473.40	0.122
473.86	0.125
474.32	0.121
474.78	0.123
475.23	0.124
475.69	0.123
476.15	0.127
476.60	0.125
477.06	0.122
477.52	0.124
477.98	0.124
478.43	0.126
478.89	0.123
479.35	0.124
479.80	0.120
480.26	0.121
480.72	0.121
481.18	0.122
481.63	0.123
482.09	0.122
482.55	0.122
483.00	0.121
483.46	0.122
483.92	0.122
484.37	0.122
484.83	0.122
485.29	0.124
485.74	0.122
486.20	0.122
486.66	0.122
487.11	0.121
487.57	0.122
488.03	0.123
488.48	0.125
488.94	0.120
489.40	0.120
489.85	0.122
490.31	0.123
490.77	0.120
491.22	0.125
491.68	0.122
492.13	0.122
492.59	0.122
493.05	0.122
493.50	0.120
493.96	0.121
494.42	0.123
494.87	0.123
495.33	0.120
495.78	0.120
496.24	0.122
496.70	0.123
497.15	0.122
497.61	0.122
498.06	0.123
498.52	0.121
498.98	0.120
499.43	0.120
499.89	0.121
500.34	0.120
500.80	0.119
501.25	0.120
501.71	0.119
502.17	0.117
502.62	0.120
503.08	0.118
503.53	0.118
503.99	0.119
504.44	0.119
504.90	0.119
505.36	0.119
505.81	0.120
506.27	0.118
506.72	0.117
507.18	0.121
507.63	0.118
508.09	0.120
508.54	0.116
509.00	0.120
509.45	0.118
509.91	0.118
510.36	0.120
510.82	0.120
511.27	0.118
511.73	0.120
512.19	0.120
512.64	0.118
513.10	0.118
513.55	0.117
514.01	0.120
514.46	0.119
514.92	0.118
515.37	0.119
515.83	0.119
516.28	0.120
516.73	0.118
517.19	0.119
517.64	0.119
518.10	0.117
518.55	0.117
519.01	0.118
519.46	0.116
519.92	0.115
520.37	0.117
520.83	0.120
521.28	0.117
521.74	0.117
522.19	0.118
522.65	0.116
523.10	0.117
523.55	0.117
524.01	0.117
524.46	0.117
524.92	0.116
525.37	0.117
525.83	0.116
526.28	0.116
526.73	0.115
527.19	0.116
527.64	0.118
528.10	0.116
528.55	0.118
529.01	0.119
529.46	0.118
529.91	0.115
530.37	0.116
530.82	0.117
531.28	0.118
531.73	0.117
532.18	0.120
532.64	0.116
533.09	0.117
533.54	0.117
534.00	0.117
534.45	0.118
534.91	0.118
535.36	0.117
535.81	0.116
536.27	0.116
536.72	0.118
537.17	0.119
537.63	0.118
538.08	0.119
538.54	0.119
538.99	0.119
539.44	0.119
539.90	0.120
540.35	0.120
540.80	0.119
541.26	0.119
541.71	0.122
542.16	0.121
542.62	0.124
543.07	0.121
543.52	0.121
543.98	0.118
544.43	0.122
544.88	0.119
545.34	0.122
545.79	0.121
546.24	0.121
546.69	0.120
547.15	0.123
547.60	0.121
548.05	0.123
548.51	0.124
548.96	0.123
549.41	0.123
549.86	0.123
550.32	0.126
550.77	0.124
551.22	0.124
551.68	0.126
552.13	0.127
552.58	0.126
553.03	0.128
553.49	0.128
553.94	0.127
554.39	0.129
554.84	0.129
555.30	0.128
555.75	0.129
556.20	0.129
556.65	0.129
557.11	0.131
557.56	0.131
558.01	0.133
558.46	0.131
558.92	0.132
559.37	0.134
559.82	0.132
560.27	0.133
560.72	0.133
561.18	0.133
561.63	0.135
562.08	0.135
562.53	0.134
562.99	0.136
563.44	0.138
563.89	0.138
564.34	0.138
564.79	0.140
565.25	0.140
565.70	0.140
566.15	0.139
566.60	0.142
567.05	0.141
567.50	0.143
567.96	0.143
568.41	0.144
568.86	0.142
569.31	0.144
569.76	0.143
570.21	0.146
570.67	0.144
571.12	0.146
571.57	0.147
572.02	0.148
572.47	0.148
572.92	0.148
573.37	0.152
573.83	0.150
574.28	0.150
574.73	0.151
575.18	0.154
575.63	0.153
576.08	0.153
576.53	0.154
576.98	0.154
577.44	0.158
577.89	0.155
578.34	0.159
578.79	0.158
579.24	0.160
579.69	0.161
580.14	0.161
580.59	0.162
581.04	0.162
581.49	0.163
581.95	0.166
582.40	0.167
582.85	0.169
583.30	0.169
583.75	0.170
584.20	0.170
584.65	0.171
585.10	0.175
585.55	0.176
586.00	0.174
586.45	0.177
586.90	0.180
587.35	0.181
587.80	0.183
588.25	0.184
588.71	0.184
589.16	0.189
589.61	0.187
590.06	0.188
590.51	0.191
590.96	0.192
591.41	0.193
591.86	0.195
592.31	0.196
592.76	0.197
593.21	0.198
593.66	0.204
594.11	0.206
594.56	0.207
595.01	0.207
595.46	0.208
595.91	0.210
596.36	0.211
596.81	0.216
597.26	0.217
597.71	0.217
598.16	0.218
598.61	0.220
599.06	0.222
599.51	0.222
599.96	0.223
600.41	0.226
600.86	0.228
601.31	0.229
601.76	0.233
602.21	0.235
602.65	0.238
603.10	0.236
603.55	0.238
604.00	0.241
604.45	0.241
604.90	0.241
605.35	0.246
605.80	0.244
606.25	0.245
606.70	0.249
607.15	0.251
607.60	0.250
608.05	0.253
608.50	0.254
608.95	0.256
609.39	0.258
609.84	0.257
610.29	0.258
610.74	0.259
611.19	0.259
611.64	0.262
612.09	0.261
612.54	0.264
612.99	0.262
613.44	0.263
613.88	0.266
614.33	0.264
614.78	0.269
615.23	0.269
615.68	0.269
616.13	0.269
616.58	0.271
617.03	0.271
617.47	0.271
617.92	0.273
618.37	0.273
618.82	0.272
619.27	0.274
619.72	0.274
620.17	0.274
620.61	0.276
621.06	0.277
621.51	0.274
621.96	0.275
622.41	0.275
622.86	0.277
623.30	0.278
623.75	0.278
624.20	0.279
624.65	0.281
625.10	0.280
625.54	0.279
625.99	0.279
626.44	0.284
626.89	0.284
627.34	0.284
627.78	0.287
628.23	0.289
628.68	0.289
629.13	0.289
629.58	0.290
630.02	0.293
630.47	0.294
630.92	0.293
631.37	0.298
631.81	0.300
632.26	0.299
632.71	0.300
633.16	0.304
633.61	0.303
634.05	0.305
634.50	0.307
634.95	0.311
635.40	0.310
635.84	0.313
636.29	0.318
636.74	0.319
637.18	0.320
637.63	0.321
638.08	0.323
638.53	0.326
638.97	0.327
639.42	0.329
639.87	0.332
640.32	0.334
640.76	0.337
641.21	0.340
641.66	0.342
642.10	0.345
642.55	0.346
643.00	0.351
643.44	0.353
643.89	0.357
644.34	0.360
644.79	0.363
645.23	0.363
645.68	0.368
646.13	0.370
646.57	0.374
647.02	0.376
647.47	0.377
647.91	0.380
648.36	0.383
648.81	0.385
649.25	0.389
649.70	0.390
650.15	0.395
650.59	0.398
651.04	0.400
651.48	0.402
651.93	0.405
652.38	0.408
652.82	0.408
653.27	0.409
653.72	0.413
654.16	0.415
654.61	0.417
655.06	0.418
655.50	0.420
655.95	0.417
656.39	0.422
656.84	0.433
657.29	0.434
657.73	0.430
658.18	0.432
658.62	0.434
659.07	0.437
659.52	0.436
659.96	0.436
660.41	0.438
660.85	0.440
661.30	0.441
661.74	0.442
662.19	0.442
662.64	0.441
663.08	0.443
663.53	0.441
663.97	0.445
664.42	0.441
664.86	0.444
665.31	0.444
665.75	0.444
666.20	0.440
666.65	0.440
667.09	0.442
667.54	0.440
667.98	0.436
668.43	0.435
668.87	0.434
669.32	0.432
669.76	0.427
670.21	0.426
670.65	0.424
671.10	0.418
671.54	0.415
671.99	0.412
672.43	0.406
672.88	0.399
673.32	0.398
673.77	0.395
674.21	0.390
674.66	0.379
675.10	0.377
675.55	0.371
675.99	0.362
676.44	0.359
676.88	0.353
677.33	0.347
677.77	0.337
678.22	0.332
678.66	0.325
679.11	0.319
679.55	0.312
679.99	0.304
680.44	0.297
680.88	0.290
681.33	0.286
681.77	0.278
682.22	0.270
682.66	0.265
683.11	0.258
683.55	0.249
683.99	0.245
684.44	0.238
684.88	0.232
685.33	0.226
685.77	0.217
686.21	0.214
686.66	0.209
687.10	0.203
687.55	0.198
687.99	0.194
688.44	0.188
688.88	0.180
689.32	0.178
689.77	0.174
690.21	0.169
690.65	0.164
691.10	0.160
691.54	0.156
691.99	0.152
692.43	0.149
692.87	0.147
693.32	0.143
693.76	0.141
694.20	0.137
694.65	0.136
695.09	0.130
695.53	0.128
695.98	0.126
696.42	0.126
696.86	0.124
697.31	0.121
697.75	0.118
698.19	0.118
698.64	0.115
699.08	0.114
699.52	0.112
699.97	0.109
700.41	0.108
700.85	0.107
701.30	0.104
701.74	0.105
702.18	0.100
702.63	0.101
703.07	0.098
703.51	0.099
703.96	0.099
704.40	0.098
704.84	0.096
705.28	0.096
705.73	0.096
706.17	0.092
706.61	0.095
707.06	0.093
707.50	0.093
707.94	0.093
708.38	0.090
708.83	0.092
709.27	0.090
709.71	0.091
710.15	0.088
710.60	0.091
711.04	0.088
711.48	0.090
711.92	0.089
712.37	0.085
712.81	0.086
713.25	0.089
713.69	0.085
714.13	0.084
714.58	0.086
715.02	0.085
715.46	0.084
715.90	0.084
716.35	0.083
716.79	0.083
717.23	0.087
717.67	0.084
718.11	0.083
718.56	0.084
719.00	0.086
719.44	0.084
719.88	0.085
720.32	0.085
720.76	0.082
721.21	0.085
721.65	0.082
722.09	0.082
722.53	0.084
722.97	0.084
723.41	0.084
723.86	0.083
724.30	0.085
724.74	0.084
725.18	0.084
725.62	0.083
726.06	0.085
726.50	0.086
726.95	0.085
727.39	0.085
727.83	0.085
728.27	0.084
728.71	0.084
729.15	0.083
729.59	0.083
730.03	0.083
730.48	0.085
730.92	0.087
731.36	0.084
731.80	0.084
732.24	0.087
732.68	0.086
733.12	0.085
733.56	0.085
734.00	0.087
734.44	0.086
734.89	0.087
735.33	0.083
735.77	0.086
736.21	0.085
736.65	0.085
737.09	0.087
737.53	0.086
737.97	0.088
738.41	0.084
738.85	0.088
739.29	0.086
739.73	0.089
740.17	0.089
740.61	0.086
741.05	0.090
741.49	0.087
741.93	0.087
742.37	0.085
742.81	0.089
743.26	0.088
743.70	0.088
744.14	0.087
744.58	0.087
745.02	0.085
745.46	0.086
745.90	0.085
746.34	0.086
746.78	0.088
747.22	0.086
747.66	0.085
748.10	0.086
748.54	0.085
748.98	0.084
749.42	0.086
749.86	0.089
750.29	0.088
750.73	0.087
751.17	0.088
751.61	0.089
752.05	0.084
752.49	0.084
752.93	0.084
753.37	0.087
753.81	0.086
754.25	0.086
754.69	0.086
755.13	0.088
755.57	0.085
756.01	0.086
756.45	0.085
756.89	0.086
757.33	0.085
757.77	0.086
758.21	0.088
758.64	0.084
759.08	0.083
759.52	0.086
759.96	0.085
760.40	0.085
760.84	0.082
761.28	0.086
761.72	0.086
762.16	0.084
762.60	0.086
763.03	0.087
763.47	0.085
763.91	0.085
764.35	0.083
764.79	0.085
765.23	0.086
765.67	0.085
766.11	0.087
766.54	0.084
766.98	0.084
767.42	0.087
767.86	0.086
768.30	0.083
768.74	0.084
769.17	0.084
769.61	0.084
770.05	0.083
770.49	0.086
770.93	0.083
771.37	0.086
771.80	0.084
772.24	0.081
772.68	0.083
773.12	0.084
773.56	0.086
774.00	0.085
774.43	0.086
774.87	0.083
775.31	0.085
775.75	0.081
776.19	0.082
776.62	0.085
777.06	0.082
777.50	0.085
777.94	0.083
778.37	0.086
778.81	0.086
779.25	0.080
779.69	0.084
780.13	0.085
780.56	0.078
781.00	0.085
781.44	0.083
781.88	0.084
782.31	0.084
782.75	0.080
783.19	0.082
783.63	0.084
784.06	0.084
784.50	0.085
784.94	0.085
785.37	0.080
785.81	0.081
786.25	0.081
786.69	0.084
787.12	0.085
787.56	0.084
788.00	0.085
788.43	0.087
788.87	0.084
789.31	0.087
789.75	0.085
790.18	0.085
790.62	0.086
791.06	0.085
791.49	0.084
791.93	0.082
792.37	0.080
792.80	0.084
793.24	0.083
793.68	0.085
794.11	0.083
794.55	0.085
794.99	0.084
795.42	0.081
795.86	0.089
796.30	0.086
796.73	0.083
797.17	0.082
797.61	0.085
798.04	0.086
798.48	0.083
798.91	0.087
799.35	0.086
799.79	0.081
800.22	0.084
800.66	0.082
801.10	0.085
801.53	0.088
801.97	0.085
802.40	0.082
802.84	0.082
803.28	0.082
803.71	0.083
804.15	0.085
804.58	0.087
805.02	0.087
805.46	0.084
805.89	0.084
806.33	0.088
806.76	0.082
807.20	0.082
807.63	0.085
808.07	0.084
808.51	0.084
808.94	0.083
809.38	0.083
809.81	0.087
810.25	0.085
810.68	0.085
811.12	0.084
811.55	0.088
811.99	0.082
812.42	0.082
812.86	0.085
813.29	0.085
813.73	0.085
814.17	0.078
814.60	0.084
815.04	0.083
815.47	0.083
815.91	0.084
816.34	0.081
816.78	0.090
817.21	0.089
817.65	0.086
818.08	0.084
818.52	0.086
818.95	0.085
819.39	0.089
819.82	0.085
820.25	0.085
820.69	0.083
821.12	0.090
821.56	0.086
821.99	0.088
822.43	0.085
822.86	0.089
823.30	0.083
823.73	0.085
824.17	0.089
824.60	0.088
825.04	0.083
825.47	0.086
825.90	0.081
826.34	0.089
826.77	0.089
827.21	0.090
827.64	0.085
828.08	0.088
828.51	0.087
828.94	0.087
829.38	0.090
829.81	0.090
830.25	0.091
830.68	0.089
831.11	0.090
831.55	0.091
831.98	0.091
832.42	0.093
832.85	0.092
833.28	0.090
833.72	0.095
834.15	0.098
834.58	0.091
835.02	0.090
835.45	0.092
835.88	0.093
836.32	0.096
836.75	0.094
837.19	0.097
837.62	0.091
838.05	0.097
838.49	0.093
838.92	0.095
839.35	0.090
839.79	0.090
840.22	0.094
840.65	0.095
841.09	0.098
841.52	0.096
841.95	0.094
842.39	0.092
842.82	0.096
843.25	0.096
843.68	0.096
844.12	0.095
844.55	0.093
844.98	0.094
845.42	0.093
845.85	0.094
846.28	0.095
846.71	0.091
847.15	0.091
847.58	0.094
848.01	0.093
848.45	0.093
848.88	0.094
849.31	0.091
849.74	0.095
850.18	0.093
850.61	0.098
851.04	0.093
851.47	0.096
851.91	0.095
852.34	0.097
852.77	0.093
853.20	0.098
853.64	0.098
854.07	0.101
854.50	0.095
854.93	0.097
855.36	0.096
855.80	0.097
856.23	0.094
856.66	0.093
857.09	0.098
857.52	0.095
857.96	0.101
858.39	0.100
858.82	0.097
859.25	0.103
859.68	0.102
860.12	0.094
860.55	0.095
860.98	0.099
861.41	0.101
861.84	0.103
862.27	0.105
862.71	0.102
863.14	0.098
863.57	0.102
864.00	0.099
864.43	0.095
864.86	0.103
865.30	0.098
865.73	0.098
866.16	0.100
866.59	0.102
867.02	0.094
867.45	0.099
867.88	0.102
868.31	0.102
868.75	0.102
869.18	0.100
869.61	0.103
870.04	0.100
870.47	0.097
870.90	0.106
871.33	0.103
871.76	0.095
872.19	0.100
872.62	0.105
873.06	0.108
873.49	0.102
873.92	0.105
874.35	0.103
874.78	0.113
875.21	0.100
875.64	0.104
876.07	0.107
876.50	0.104
876.93	0.104
877.36	0.106
877.79	0.101
878.22	0.097
878.65	0.106
879.08	0.107
879.51	0.108
879.94	0.103
880.37	0.103
880.80	0.103
881.23	0.107
881.67	0.103
882.10	0.107
882.53	0.104
882.96	0.106
883.39	0.109
883.82	0.107
884.25	0.107
884.68	0.105
885.11	0.104
885.54	0.109
885.97	0.102
886.39	0.103
886.82	0.103
887.25	0.106
887.68	0.106
888.11	0.106
888.54	0.107
888.97	0.106
889.40	0.104
889.83	0.108
890.26	0.112
890.69	0.104
891.12	0.105
891.55	0.106
891.98	0.108
892.41	0.103
892.84	0.110
893.27	0.108
893.70	0.106
894.13	0.105
894.56	0.106
894.98	0.110
895.41	0.110
895.84	0.116
896.27	0.105
896.70	0.105
897.13	0.104
897.56	0.112
897.99	0.104
898.42	0.109
898.85	0.111
899.27	0.109
899.70	0.115
900.13	0.114
900.56	0.111
900.99	0.110
901.42	0.103
901.85	0.111
902.28	0.114
902.70	0.108
903.13	0.107
903.56	0.112
903.99	0.111
904.42	0.113
904.85	0.111
905.27	0.107
905.70	0.115
906.13	0.105
906.56	0.110
906.99	0.110
907.42	0.103
907.84	0.109
908.27	0.112
908.70	0.106
909.13	0.109
909.56	0.106
909.98	0.107
910.41	0.110
910.84	0.107
911.27	0.106
911.70	0.109
912.12	0.106
912.55	0.109
912.98	0.105
913.41	0.108
913.84	0.104
914.26	0.103
914.69	0.104
915.12	0.105
915.55	0.100
915.97	0.107
916.40	0.108
916.83	0.105
917.26	0.109
917.68	0.107
918.11	0.112
918.54	0.109
918.97	0.108
919.39	0.111
919.82	0.111
920.25	0.106
920.67	0.106
921.10	0.113
921.53	0.111
921.96	0.109
922.38	0.113
922.81	0.112
923.24	0.117
923.66	0.112
924.09	0.113
924.52	0.117
924.94	0.113
925.37	0.117
925.80	0.115
926.22	0.117
926.65	0.117
927.08	0.118
927.50	0.121
927.93	0.118
928.36	0.120
928.78	0.119
929.21	0.121
929.64	0.122
930.06	0.126
930.49	0.128
930.92	0.121
931.34	0.126
931.77	0.125
932.20	0.125
932.62	0.125
933.05	0.124
933.47	0.129
933.90	0.128
934.33	0.133
934.75	0.132
935.18	0.138
935.61	0.137
936.03	0.136
936.46	0.141
936.88	0.142
937.31	0.143
937.73	0.152
938.16	0.151
938.59	0.151
939.01	0.156
939.44	0.155
939.86	0.152
940.29	0.159
940.71	0.163
941.14	0.165
941.57	0.165
941.99	0.166
942.42	0.173
942.84	0.168
943.27	0.178
943.69	0.178
944.12	0.181
944.54	0.177
944.97	0.175
945.39	0.186
945.82	0.183
946.24	0.180
946.67	0.186
947.09	0.192
947.52	0.193
947.94	0.190
948.37	0.191
948.79	0.193
949.22	0.194
949.64	0.202
950.07	0.204
950.49	0.205
950.92	0.204
951.34	0.209
951.77	0.216
952.19	0.212
952.62	0.215
953.04	0.223
953.47	0.224
953.89	0.228
954.32	0.225
954.74	0.240
955.17	0.230
955.59	0.232
956.01	0.242
956.44	0.244
956.86	0.243
957.29	0.250
957.71	0.255
958.14	0.251
958.56	0.250
958.98	0.253
959.41	0.254
959.83	0.257
960.26	0.261
960.68	0.264
961.10	0.267
961.53	0.264
961.95	0.269
962.38	0.279
962.80	0.270
963.22	0.269
963.65	0.278
964.07	0.267
964.50	0.272
964.92	0.274
965.34	0.278
965.77	0.277
966.19	0.272
966.61	0.275
967.04	0.276
967.46	0.276
967.88	0.275
968.31	0.276
968.73	0.282
969.15	0.274
969.58	0.278
970.00	0.278
970.42	0.286
970.85	0.275
971.27	0.288
971.69	0.280
972.12	0.278
972.54	0.276
972.96	0.284
973.39	0.283
973.81	0.281
974.23	0.282
974.65	0.283
975.08	0.279
975.50	0.278
975.92	0.281
976.35	0.280
976.77	0.282
977.19	0.280
977.61	0.283
978.04	0.284
978.46	0.279
978.88	0.281
979.30	0.285
979.73	0.286
980.15	0.282
980.57	0.284
980.99	0.282
981.42	0.280
981.84	0.287
982.26	0.287
982.68	0.279
983.11	0.281
983.53	0.278
983.95	0.282
984.37	0.276
984.79	0.282
985.22	0.277
985.64	0.285
986.06	0.266
986.48	0.277
986.90	0.274
987.33	0.276
987.75	0.276
988.17	0.279
988.59	0.276
989.01	0.272
989.43	0.275
989.86	0.269
990.28	0.264
990.70	0.269
991.12	0.269
991.54	0.272
991.96	0.269
992.39	0.266
992.81	0.268
993.23	0.266
993.65	0.268
994.07	0.270
994.49	0.266
994.91	0.266
995.34	0.268
995.76	0.267
996.18	0.266
996.60	0.257
997.02	0.257
997.44	0.264
997.86	0.261
998.28	0.257
998.70	0.263
999.12	0.258
999.55	0.255
999.97	0.261
1000.39	0.257
1000.81	0.257
1001.23	0.244
1001.65	0.253
1002.07	0.252
1002.49	0.249
1002.91	0.260
1003.33	0.255
1003.75	0.250
1004.17	0.252
1004.59	0.258
1005.01	0.243
1005.43	0.238
1005.85	0.241
1006.28	0.241
1006.70	0.238
1007.12	0.244
1007.54	0.247
1007.96	0.243
1008.38	0.231
1008.80	0.247
1009.22	0.241
1009.64	0.246
1010.06	0.248
1010.48	0.241
1010.90	0.242
1011.32	0.246
1011.74	0.241
1012.16	0.229
1012.58	0.239
1013.00	0.228
1013.42	0.233
1013.84	0.232
1014.26	0.236
1014.67	0.230
1015.09	0.229
1015.51	0.226
1015.93	0.238
1016.35	0.224
1016.77	0.228
1017.19	0.229
1017.61	0.213
1018.03	0.220
1018.45	0.230
1018.87	0.221
1019.29	0.218
1019.71	0.215
1020.13	0.220
1020.55	0.225
1020.97	0.211
1021.38	0.224
1021.80	0.217
1022.22	0.223
1022.64	0.213
1023.06	0.225
1023.48	0.211
1023.90	0.209
1024.32	0.210
1024.74	0.210
1025.15	0.215
1025.57	0.219
1025.99	0.215
1026.41	0.206
1026.83	0.218
1027.25	0.222
1027.67	0.221
1028.08	0.218
1028.50	0.212
1028.92	0.206
1029.34	0.197
1029.76	0.210
1030.18	0.209
1030.60	0.214
1031.01	0.207
1031.43	0.196
1031.85	0.199
1032.27	0.204
1032.69	0.191
1033.10	0.202
1033.52	0.201
1033.94	0.203
1034.36	0.200
1034.78	0.204
1035.19	0.193
1035.61	0.206
1036.03	0.201
1036.45	0.203
1036.87	0.203
1037.28	0.191
1037.70	0.186
1038.12	0.204
1038.54	0.194
1038.95	0.200
1039.37	0.196
1039.79	0.194
1040.21	0.192
1040.62	0.179
1041.04	0.210
1041.46	0.230
1041.88	0.199
1042.29	0.203
1042.71	0.211
1043.13	0.171
1043.55	0.197
1043.96	0.218
1044.38	0.199
1044.80	0.212
1045.21	0.201
1045.63	0.212
1046.05	0.205
1046.47	0.187
1046.88	0.211
1047.30	0.188
1047.72	0.196
1048.13	0.185
1048.55	0.218
1048.97	0.205
1049.38	0.201
1049.80	0.181
1050.22	0.193
1050.63	0.207
1051.05	0.191
1051.47	0.215
1051.88	0.202
1052.30	0.199
1052.72	0.206
1053.13	0.224
1053.55	0.209
1053.97	0.220
1054.38	0.199
1054.80	0.228
1055.21	0.210
1055.63	0.194
1056.05	0.200
1056.46	0.241
1056.88	0.250
1057.29	0.231
1057.71	0.239
1058.13	0.211
1058.54	0.222
1058.96	0.235
1059.37	0.260
1059.79	0.282
1060.21	0.277
1060.62	0.243
1061.04	0.280
1061.45	0.289
1061.87	0.241
1062.28	0.392
1062.70	0.314
1063.12	0.279
1063.53	0.262
1063.95	0.348
1064.36	0.323
1064.78	0.307
1065.19	0.359
1065.61	0.412
1066.02	0.260
1066.44	0.318
1066.85	0.430
1067.27	0.339
1067.68	0.343
1068.10	0.385
1068.51	0.402
1068.93	0.357
1069.35	0.534
1069.76	0.531
1070.17	0.673
1070.59	0.449
1071.00	0.446
1071.42	0.606
1071.83	0.535
1072.25	0.564
1072.66	0.871
1073.08	0.690
1073.49	0.756
1073.91	0.629
1074.32	1.674
1074.74	1.258
1075.15	1.031
1075.57	1.049
1075.98	2.307
1076.40	-0.000
1076.81	1.110
1077.22	-0.000
1077.64	-0.000
1078.05	-0.000
1078.47	-0.000
1078.88	-0.000
1079.30	-0.000
1079.71	-0.000
1080.12	-0.000
1080.54	-0.000
1080.95	-0.000
1081.37	-0.000
1081.78	-0.000
1082.19	-0.000
1082.61	-0.000
1083.02	-0.000
1083.44	-0.000
1083.85	-0.000
1084.26	-0.000
1084.68	-0.000
1085.09	-0.000
1085.50	-0.000
1085.92	-0.000
1086.33	-0.000
1086.74	-0.000
1087.16	-0.000
1087.57	-0.000
1087.98	-0.000
1088.40	-0.000
1088.81	-0.000
1089.22	-0.000
1089.64	-0.000
1090.05	-0.000
1090.46	-0.000
1090.88	-0.000
1091.29	-0.000
1091.70	-0.000
1092.12	-0.000
1092.53	-0.000
1092.94	-0.000
1093.36	-0.000
1093.77	-0.000
1094.18	-0.000
1094.59	-0.000
1095.01	-0.000
1095.42	-0.000
1095.83	-0.000
1096.25	-0.000
1096.66	-0.000
1097.07	-0.000
1097.48	-0.000
1097.90	-0.000
1098.31	-0.000
1098.72	-0.000
1099.13	-0.000
>>>>>End Processed Spectral Data<<<<<
