SpectraSuite Data File
++++++++++++++++++++++++++++++++++++
Date: Wed May 04 13:28:49 CEST 2016
User: spectrasuite
Dark Spectrum Present: Yes
Reference Spectrum Present: Yes
Number of Sampled Component Spectra: 1
Spectrometers: HR+C0708
Integration Time (usec): 1000 (HR+C0708)
Spectra Averaged: 10 (HR+C0708)
Boxcar Smoothing: 0 (HR+C0708)
Correct for Electrical Dark: No (HR+C0708)
Strobe/Lamp Enabled: No (HR+C0708)
Correct for Detector Non-linearity: No (HR+C0708)
Correct for Stray Light: No (HR+C0708)
Number of Pixels in Processed Spectrum: 2048
>>>>>Begin Processed Spectral Data<<<<<
188.76	0.227
189.23	-0.000
189.70	0.274
190.17	0.428
190.64	-0.000
191.12	-0.000
191.59	-0.000
192.06	1.284
192.53	-0.000
193.01	-0.000
193.48	0.267
193.95	-0.000
194.42	1.104
194.90	-0.000
195.37	1.097
195.84	-0.000
196.31	0.401
196.78	1.519
197.26	-0.000
197.73	-0.000
198.20	0.376
198.67	-0.000
199.14	-0.000
199.62	-0.000
200.09	-0.000
200.56	0.550
201.03	0.624
201.50	0.480
201.97	0.547
202.45	0.545
202.92	0.702
203.39	0.554
203.86	0.538
204.33	0.741
204.80	0.724
205.28	0.599
205.75	0.562
206.22	0.884
206.69	0.598
207.16	0.420
207.63	1.034
208.11	0.659
208.58	0.520
209.05	0.649
209.52	1.589
209.99	0.519
210.46	0.260
210.93	0.810
211.41	0.534
211.88	0.623
212.35	0.526
212.82	0.703
213.29	0.642
213.76	0.411
214.23	0.655
214.70	0.848
215.18	0.579
215.65	0.502
216.12	0.778
216.59	0.675
217.06	0.406
217.53	0.530
218.00	0.580
218.47	0.535
218.94	0.505
219.41	0.715
219.89	0.419
220.36	0.412
220.83	0.774
221.30	1.016
221.77	0.902
222.24	0.564
222.71	0.797
223.18	0.623
223.65	0.553
224.12	0.548
224.59	0.734
225.06	0.938
225.54	0.669
226.01	0.919
226.48	1.170
226.95	1.134
227.42	0.932
227.89	1.310
228.36	1.009
228.83	1.126
229.30	1.097
229.77	1.513
230.24	1.219
230.71	1.215
231.18	1.361
231.65	1.464
232.12	1.445
232.59	1.530
233.06	1.570
233.53	1.668
234.00	1.547
234.47	1.807
234.94	2.549
235.41	1.889
235.88	1.787
236.35	2.036
236.82	1.963
237.29	1.749
237.76	1.892
238.23	2.435
238.70	2.305
239.17	2.130
239.64	2.265
240.11	2.684
240.58	2.079
241.05	2.295
241.52	2.363
241.99	2.161
242.46	2.199
242.93	2.131
243.40	2.613
243.87	2.218
244.34	2.247
244.81	2.280
245.28	2.519
245.75	2.380
246.22	2.342
246.69	2.869
247.16	2.234
247.63	2.399
248.10	2.347
248.57	3.687
249.04	2.434
249.51	2.270
249.98	2.966
250.45	2.586
250.92	2.445
251.39	2.355
251.85	2.409
252.32	2.276
252.79	2.138
253.26	2.073
253.73	2.011
254.20	1.918
254.67	1.794
255.14	1.832
255.61	1.757
256.08	1.685
256.55	1.630
257.02	1.605
257.49	1.537
257.95	1.502
258.42	1.468
258.89	1.448
259.36	1.394
259.83	1.362
260.30	1.357
260.77	1.327
261.24	1.286
261.71	1.277
262.17	1.266
262.64	1.239
263.11	1.214
263.58	1.207
264.05	1.186
264.52	1.165
264.99	1.154
265.46	1.144
265.92	1.128
266.39	1.107
266.86	1.103
267.33	1.092
267.80	1.082
268.27	1.071
268.74	1.060
269.20	1.046
269.67	1.034
270.14	1.019
270.61	1.020
271.08	1.006
271.55	0.998
272.01	0.992
272.48	0.980
272.95	0.972
273.42	0.966
273.89	0.963
274.36	0.956
274.82	0.943
275.29	0.942
275.76	0.937
276.23	0.932
276.70	0.922
277.16	0.926
277.63	0.919
278.10	0.907
278.57	0.907
279.04	0.902
279.50	0.900
279.97	0.898
280.44	0.897
280.91	0.896
281.38	0.893
281.84	0.887
282.31	0.884
282.78	0.889
283.25	0.882
283.72	0.878
284.18	0.879
284.65	0.880
285.12	0.882
285.59	0.882
286.05	0.881
286.52	0.877
286.99	0.881
287.46	0.887
287.92	0.877
288.39	0.875
288.86	0.877
289.33	0.876
289.79	0.873
290.26	0.872
290.73	0.873
291.20	0.871
291.66	0.866
292.13	0.868
292.60	0.864
293.07	0.855
293.53	0.852
294.00	0.848
294.47	0.845
294.93	0.839
295.40	0.825
295.87	0.822
296.34	0.810
296.80	0.805
297.27	0.791
297.74	0.789
298.20	0.774
298.67	0.767
299.14	0.761
299.60	0.748
300.07	0.739
300.54	0.729
301.01	0.723
301.47	0.715
301.94	0.705
302.41	0.692
302.87	0.689
303.34	0.676
303.81	0.670
304.27	0.665
304.74	0.649
305.21	0.641
305.67	0.638
306.14	0.630
306.61	0.625
307.07	0.615
307.54	0.613
308.01	0.602
308.47	0.596
308.94	0.590
309.40	0.585
309.87	0.585
310.34	0.576
310.80	0.572
311.27	0.567
311.74	0.565
312.20	0.558
312.67	0.556
313.13	0.552
313.60	0.544
314.07	0.542
314.53	0.543
315.00	0.534
315.47	0.536
315.93	0.535
316.40	0.529
316.86	0.527
317.33	0.523
317.80	0.523
318.26	0.517
318.73	0.516
319.19	0.518
319.66	0.512
320.13	0.510
320.59	0.506
321.06	0.508
321.52	0.502
321.99	0.501
322.45	0.499
322.92	0.497
323.39	0.491
323.85	0.489
324.32	0.490
324.78	0.484
325.25	0.477
325.71	0.480
326.18	0.475
326.64	0.473
327.11	0.468
327.58	0.468
328.04	0.466
328.51	0.462
328.97	0.462
329.44	0.462
329.90	0.457
330.37	0.451
330.83	0.449
331.30	0.451
331.76	0.447
332.23	0.446
332.69	0.443
333.16	0.439
333.62	0.432
334.09	0.435
334.56	0.431
335.02	0.430
335.49	0.424
335.95	0.421
336.42	0.417
336.88	0.415
337.35	0.412
337.81	0.413
338.28	0.415
338.74	0.411
339.20	0.411
339.67	0.416
340.13	0.414
340.60	0.407
341.06	0.406
341.53	0.399
341.99	0.401
342.46	0.396
342.92	0.394
343.39	0.395
343.85	0.389
344.32	0.391
344.78	0.392
345.25	0.392
345.71	0.390
346.17	0.391
346.64	0.391
347.10	0.384
347.57	0.380
348.03	0.372
348.50	0.372
348.96	0.370
349.43	0.368
349.89	0.368
350.35	0.360
350.82	0.355
351.28	0.358
351.75	0.351
352.21	0.350
352.67	0.343
353.14	0.339
353.60	0.330
354.07	0.332
354.53	0.323
355.00	0.319
355.46	0.316
355.92	0.307
356.39	0.305
356.85	0.294
357.31	0.288
357.78	0.283
358.24	0.279
358.71	0.269
359.17	0.264
359.63	0.253
360.10	0.247
360.56	0.234
361.03	0.228
361.49	0.223
361.95	0.213
362.42	0.208
362.88	0.201
363.34	0.195
363.81	0.185
364.27	0.178
364.73	0.172
365.20	0.165
365.66	0.162
366.12	0.157
366.59	0.155
367.05	0.152
367.51	0.148
367.98	0.147
368.44	0.144
368.90	0.140
369.37	0.138
369.83	0.139
370.29	0.134
370.76	0.133
371.22	0.134
371.68	0.132
372.15	0.131
372.61	0.128
373.07	0.131
373.54	0.126
374.00	0.128
374.46	0.128
374.92	0.126
375.39	0.127
375.85	0.126
376.31	0.129
376.78	0.125
377.24	0.124
377.70	0.126
378.16	0.124
378.63	0.125
379.09	0.125
379.55	0.123
380.01	0.124
380.48	0.123
380.94	0.121
381.40	0.121
381.87	0.123
382.33	0.119
382.79	0.118
383.25	0.123
383.72	0.122
384.18	0.119
384.64	0.121
385.10	0.118
385.56	0.118
386.03	0.120
386.49	0.117
386.95	0.117
387.41	0.117
387.88	0.115
388.34	0.113
388.80	0.118
389.26	0.116
389.72	0.116
390.19	0.114
390.65	0.112
391.11	0.114
391.57	0.116
392.04	0.116
392.50	0.114
392.96	0.113
393.42	0.112
393.88	0.113
394.34	0.112
394.81	0.113
395.27	0.113
395.73	0.109
396.19	0.111
396.65	0.111
397.12	0.109
397.58	0.110
398.04	0.109
398.50	0.109
398.96	0.107
399.42	0.108
399.89	0.110
400.35	0.109
400.81	0.107
401.27	0.109
401.73	0.105
402.19	0.108
402.65	0.105
403.12	0.107
403.58	0.104
404.04	0.104
404.50	0.101
404.96	0.102
405.42	0.105
405.88	0.105
406.34	0.105
406.81	0.103
407.27	0.102
407.73	0.099
408.19	0.101
408.65	0.100
409.11	0.101
409.57	0.098
410.03	0.102
410.49	0.100
410.96	0.100
411.42	0.101
411.88	0.098
412.34	0.096
412.80	0.099
413.26	0.099
413.72	0.097
414.18	0.097
414.64	0.096
415.10	0.096
415.56	0.098
416.02	0.095
416.48	0.097
416.95	0.096
417.41	0.095
417.87	0.095
418.33	0.095
418.79	0.094
419.25	0.096
419.71	0.095
420.17	0.095
420.63	0.092
421.09	0.091
421.55	0.092
422.01	0.092
422.47	0.093
422.93	0.093
423.39	0.093
423.85	0.091
424.31	0.091
424.77	0.093
425.23	0.091
425.69	0.096
426.15	0.094
426.61	0.093
427.07	0.090
427.53	0.093
427.99	0.090
428.45	0.093
428.91	0.092
429.37	0.091
429.83	0.090
430.29	0.091
430.75	0.091
431.21	0.092
431.67	0.094
432.13	0.092
432.59	0.090
433.05	0.095
433.51	0.088
433.97	0.088
434.43	0.092
434.89	0.093
435.35	0.090
435.81	0.091
436.27	0.089
436.73	0.087
437.19	0.092
437.65	0.088
438.11	0.090
438.57	0.090
439.03	0.088
439.48	0.088
439.94	0.090
440.40	0.088
440.86	0.089
441.32	0.090
441.78	0.085
442.24	0.088
442.70	0.089
443.16	0.087
443.62	0.089
444.08	0.088
444.54	0.088
444.99	0.089
445.45	0.085
445.91	0.086
446.37	0.088
446.83	0.089
447.29	0.089
447.75	0.087
448.21	0.090
448.67	0.087
449.12	0.087
449.58	0.088
450.04	0.088
450.50	0.088
450.96	0.085
451.42	0.087
451.88	0.089
452.34	0.087
452.79	0.088
453.25	0.089
453.71	0.087
454.17	0.089
454.63	0.085
455.09	0.088
455.55	0.087
456.00	0.085
456.46	0.086
456.92	0.089
457.38	0.088
457.84	0.089
458.30	0.089
458.75	0.087
459.21	0.088
459.67	0.087
460.13	0.088
460.59	0.086
461.04	0.086
461.50	0.087
461.96	0.087
462.42	0.089
462.88	0.085
463.33	0.085
463.79	0.087
464.25	0.085
464.71	0.087
465.17	0.086
465.62	0.084
466.08	0.088
466.54	0.087
467.00	0.086
467.46	0.087
467.91	0.087
468.37	0.085
468.83	0.085
469.29	0.087
469.74	0.084
470.20	0.086
470.66	0.085
471.12	0.085
471.57	0.086
472.03	0.086
472.49	0.087
472.95	0.087
473.40	0.086
473.86	0.088
474.32	0.084
474.78	0.087
475.23	0.086
475.69	0.086
476.15	0.090
476.60	0.088
477.06	0.087
477.52	0.086
477.98	0.088
478.43	0.088
478.89	0.087
479.35	0.091
479.80	0.086
480.26	0.087
480.72	0.088
481.18	0.087
481.63	0.089
482.09	0.089
482.55	0.085
483.00	0.085
483.46	0.086
483.92	0.086
484.37	0.087
484.83	0.084
485.29	0.088
485.74	0.087
486.20	0.086
486.66	0.088
487.11	0.087
487.57	0.086
488.03	0.084
488.48	0.089
488.94	0.085
489.40	0.085
489.85	0.084
490.31	0.087
490.77	0.087
491.22	0.088
491.68	0.085
492.13	0.086
492.59	0.089
493.05	0.086
493.50	0.086
493.96	0.087
494.42	0.088
494.87	0.089
495.33	0.086
495.78	0.085
496.24	0.086
496.70	0.088
497.15	0.088
497.61	0.088
498.06	0.086
498.52	0.085
498.98	0.086
499.43	0.088
499.89	0.087
500.34	0.086
500.80	0.086
501.25	0.084
501.71	0.084
502.17	0.084
502.62	0.085
503.08	0.084
503.53	0.085
503.99	0.084
504.44	0.088
504.90	0.084
505.36	0.086
505.81	0.087
506.27	0.085
506.72	0.085
507.18	0.085
507.63	0.084
508.09	0.087
508.54	0.083
509.00	0.084
509.45	0.084
509.91	0.084
510.36	0.084
510.82	0.086
511.27	0.081
511.73	0.084
512.19	0.083
512.64	0.084
513.10	0.084
513.55	0.085
514.01	0.084
514.46	0.085
514.92	0.083
515.37	0.084
515.83	0.083
516.28	0.083
516.73	0.084
517.19	0.084
517.64	0.084
518.10	0.083
518.55	0.084
519.01	0.084
519.46	0.082
519.92	0.083
520.37	0.082
520.83	0.083
521.28	0.081
521.74	0.083
522.19	0.084
522.65	0.083
523.10	0.083
523.55	0.084
524.01	0.082
524.46	0.084
524.92	0.082
525.37	0.084
525.83	0.084
526.28	0.084
526.73	0.083
527.19	0.083
527.64	0.083
528.10	0.084
528.55	0.084
529.01	0.085
529.46	0.085
529.91	0.082
530.37	0.085
530.82	0.082
531.28	0.084
531.73	0.084
532.18	0.086
532.64	0.086
533.09	0.086
533.54	0.084
534.00	0.086
534.45	0.086
534.91	0.083
535.36	0.084
535.81	0.084
536.27	0.083
536.72	0.085
537.17	0.085
537.63	0.086
538.08	0.088
538.54	0.087
538.99	0.090
539.44	0.084
539.90	0.088
540.35	0.087
540.80	0.088
541.26	0.089
541.71	0.092
542.16	0.090
542.62	0.091
543.07	0.090
543.52	0.090
543.98	0.090
544.43	0.091
544.88	0.090
545.34	0.092
545.79	0.093
546.24	0.091
546.69	0.092
547.15	0.093
547.60	0.094
548.05	0.093
548.51	0.095
548.96	0.096
549.41	0.095
549.86	0.094
550.32	0.097
550.77	0.095
551.22	0.095
551.68	0.097
552.13	0.099
552.58	0.097
553.03	0.099
553.49	0.099
553.94	0.096
554.39	0.098
554.84	0.100
555.30	0.100
555.75	0.101
556.20	0.100
556.65	0.103
557.11	0.104
557.56	0.103
558.01	0.106
558.46	0.103
558.92	0.107
559.37	0.107
559.82	0.109
560.27	0.107
560.72	0.109
561.18	0.108
561.63	0.108
562.08	0.110
562.53	0.108
562.99	0.112
563.44	0.112
563.89	0.112
564.34	0.115
564.79	0.113
565.25	0.116
565.70	0.115
566.15	0.116
566.60	0.117
567.05	0.117
567.50	0.121
567.96	0.120
568.41	0.123
568.86	0.121
569.31	0.122
569.76	0.121
570.21	0.124
570.67	0.121
571.12	0.125
571.57	0.125
572.02	0.127
572.47	0.128
572.92	0.128
573.37	0.131
573.83	0.130
574.28	0.133
574.73	0.133
575.18	0.132
575.63	0.132
576.08	0.135
576.53	0.136
576.98	0.136
577.44	0.140
577.89	0.137
578.34	0.141
578.79	0.139
579.24	0.140
579.69	0.144
580.14	0.144
580.59	0.146
581.04	0.148
581.49	0.147
581.95	0.149
582.40	0.151
582.85	0.154
583.30	0.155
583.75	0.157
584.20	0.157
584.65	0.158
585.10	0.161
585.55	0.163
586.00	0.164
586.45	0.166
586.90	0.167
587.35	0.170
587.80	0.170
588.25	0.173
588.71	0.175
589.16	0.178
589.61	0.178
590.06	0.181
590.51	0.182
590.96	0.185
591.41	0.186
591.86	0.189
592.31	0.191
592.76	0.193
593.21	0.194
593.66	0.196
594.11	0.199
594.56	0.203
595.01	0.203
595.46	0.205
595.91	0.208
596.36	0.209
596.81	0.214
597.26	0.216
597.71	0.217
598.16	0.218
598.61	0.222
599.06	0.223
599.51	0.223
599.96	0.228
600.41	0.231
600.86	0.232
601.31	0.234
601.76	0.238
602.21	0.239
602.65	0.241
603.10	0.244
603.55	0.246
604.00	0.250
604.45	0.250
604.90	0.251
605.35	0.257
605.80	0.256
606.25	0.257
606.70	0.261
607.15	0.262
607.60	0.262
608.05	0.269
608.50	0.268
608.95	0.269
609.39	0.272
609.84	0.272
610.29	0.272
610.74	0.274
611.19	0.277
611.64	0.279
612.09	0.278
612.54	0.280
612.99	0.281
613.44	0.280
613.88	0.281
614.33	0.281
614.78	0.284
615.23	0.286
615.68	0.285
616.13	0.286
616.58	0.290
617.03	0.289
617.47	0.289
617.92	0.292
618.37	0.294
618.82	0.292
619.27	0.292
619.72	0.292
620.17	0.292
620.61	0.294
621.06	0.294
621.51	0.294
621.96	0.295
622.41	0.297
622.86	0.296
623.30	0.298
623.75	0.298
624.20	0.299
624.65	0.299
625.10	0.300
625.54	0.299
625.99	0.302
626.44	0.303
626.89	0.303
627.34	0.305
627.78	0.308
628.23	0.308
628.68	0.307
629.13	0.309
629.58	0.312
630.02	0.313
630.47	0.315
630.92	0.317
631.37	0.319
631.81	0.320
632.26	0.321
632.71	0.323
633.16	0.326
633.61	0.328
634.05	0.329
634.50	0.330
634.95	0.334
635.40	0.339
635.84	0.342
636.29	0.341
636.74	0.346
637.18	0.347
637.63	0.350
638.08	0.353
638.53	0.356
638.97	0.357
639.42	0.362
639.87	0.367
640.32	0.369
640.76	0.373
641.21	0.376
641.66	0.376
642.10	0.381
642.55	0.385
643.00	0.387
643.44	0.389
643.89	0.396
644.34	0.398
644.79	0.406
645.23	0.405
645.68	0.411
646.13	0.413
646.57	0.420
647.02	0.421
647.47	0.424
647.91	0.428
648.36	0.432
648.81	0.433
649.25	0.438
649.70	0.440
650.15	0.447
650.59	0.449
651.04	0.453
651.48	0.456
651.93	0.463
652.38	0.466
652.82	0.469
653.27	0.468
653.72	0.475
654.16	0.477
654.61	0.480
655.06	0.482
655.50	0.486
655.95	0.488
656.39	0.489
656.84	0.493
657.29	0.497
657.73	0.499
658.18	0.502
658.62	0.504
659.07	0.508
659.52	0.509
659.96	0.514
660.41	0.514
660.85	0.517
661.30	0.518
661.74	0.521
662.19	0.524
662.64	0.525
663.08	0.523
663.53	0.524
663.97	0.525
664.42	0.525
664.86	0.525
665.31	0.528
665.75	0.522
666.20	0.525
666.65	0.525
667.09	0.525
667.54	0.521
667.98	0.525
668.43	0.520
668.87	0.515
669.32	0.516
669.76	0.511
670.21	0.508
670.65	0.504
671.10	0.500
671.54	0.498
671.99	0.490
672.43	0.482
672.88	0.479
673.32	0.472
673.77	0.466
674.21	0.460
674.66	0.452
675.10	0.448
675.55	0.438
675.99	0.429
676.44	0.419
676.88	0.413
677.33	0.405
677.77	0.395
678.22	0.385
678.66	0.377
679.11	0.369
679.55	0.361
679.99	0.347
680.44	0.339
680.88	0.331
681.33	0.322
681.77	0.312
682.22	0.301
682.66	0.294
683.11	0.284
683.55	0.276
683.99	0.270
684.44	0.258
684.88	0.250
685.33	0.242
685.77	0.233
686.21	0.226
686.66	0.216
687.10	0.209
687.55	0.202
687.99	0.195
688.44	0.189
688.88	0.181
689.32	0.175
689.77	0.171
690.21	0.165
690.65	0.158
691.10	0.153
691.54	0.148
691.99	0.144
692.43	0.139
692.87	0.136
693.32	0.129
693.76	0.127
694.20	0.123
694.65	0.119
695.09	0.114
695.53	0.111
695.98	0.109
696.42	0.107
696.86	0.102
697.31	0.099
697.75	0.097
698.19	0.095
698.64	0.091
699.08	0.088
699.52	0.086
699.97	0.084
700.41	0.080
700.85	0.083
701.30	0.079
701.74	0.078
702.18	0.072
702.63	0.073
703.07	0.071
703.51	0.071
703.96	0.069
704.40	0.068
704.84	0.067
705.28	0.066
705.73	0.066
706.17	0.063
706.61	0.064
707.06	0.062
707.50	0.061
707.94	0.060
708.38	0.058
708.83	0.059
709.27	0.059
709.71	0.056
710.15	0.055
710.60	0.056
711.04	0.054
711.48	0.054
711.92	0.054
712.37	0.053
712.81	0.053
713.25	0.054
713.69	0.053
714.13	0.053
714.58	0.052
715.02	0.051
715.46	0.050
715.90	0.051
716.35	0.049
716.79	0.052
717.23	0.053
717.67	0.050
718.11	0.050
718.56	0.049
719.00	0.050
719.44	0.049
719.88	0.050
720.32	0.051
720.76	0.047
721.21	0.050
721.65	0.051
722.09	0.049
722.53	0.049
722.97	0.050
723.41	0.049
723.86	0.047
724.30	0.048
724.74	0.052
725.18	0.046
725.62	0.048
726.06	0.050
726.50	0.050
726.95	0.049
727.39	0.051
727.83	0.049
728.27	0.049
728.71	0.050
729.15	0.049
729.59	0.047
730.03	0.049
730.48	0.051
730.92	0.051
731.36	0.049
731.80	0.050
732.24	0.052
732.68	0.050
733.12	0.048
733.56	0.053
734.00	0.052
734.44	0.049
734.89	0.051
735.33	0.050
735.77	0.053
736.21	0.051
736.65	0.051
737.09	0.050
737.53	0.052
737.97	0.052
738.41	0.051
738.85	0.051
739.29	0.052
739.73	0.052
740.17	0.052
740.61	0.050
741.05	0.055
741.49	0.050
741.93	0.051
742.37	0.051
742.81	0.053
743.26	0.052
743.70	0.051
744.14	0.050
744.58	0.055
745.02	0.051
745.46	0.052
745.90	0.049
746.34	0.049
746.78	0.053
747.22	0.050
747.66	0.050
748.10	0.049
748.54	0.051
748.98	0.051
749.42	0.052
749.86	0.051
750.29	0.052
750.73	0.051
751.17	0.051
751.61	0.052
752.05	0.051
752.49	0.048
752.93	0.048
753.37	0.053
753.81	0.052
754.25	0.052
754.69	0.052
755.13	0.051
755.57	0.047
756.01	0.050
756.45	0.051
756.89	0.050
757.33	0.049
757.77	0.050
758.21	0.052
758.64	0.048
759.08	0.050
759.52	0.048
759.96	0.052
760.40	0.049
760.84	0.049
761.28	0.049
761.72	0.049
762.16	0.048
762.60	0.049
763.03	0.050
763.47	0.050
763.91	0.050
764.35	0.049
764.79	0.050
765.23	0.048
765.67	0.048
766.11	0.052
766.54	0.050
766.98	0.048
767.42	0.048
767.86	0.051
768.30	0.049
768.74	0.048
769.17	0.049
769.61	0.049
770.05	0.049
770.49	0.050
770.93	0.049
771.37	0.052
771.80	0.047
772.24	0.047
772.68	0.050
773.12	0.049
773.56	0.049
774.00	0.050
774.43	0.049
774.87	0.047
775.31	0.050
775.75	0.048
776.19	0.046
776.62	0.050
777.06	0.049
777.50	0.050
777.94	0.046
778.37	0.049
778.81	0.050
779.25	0.049
779.69	0.048
780.13	0.048
780.56	0.045
781.00	0.047
781.44	0.048
781.88	0.049
782.31	0.046
782.75	0.044
783.19	0.048
783.63	0.047
784.06	0.048
784.50	0.049
784.94	0.049
785.37	0.045
785.81	0.048
786.25	0.045
786.69	0.047
787.12	0.048
787.56	0.048
788.00	0.048
788.43	0.048
788.87	0.048
789.31	0.048
789.75	0.047
790.18	0.050
790.62	0.044
791.06	0.044
791.49	0.051
791.93	0.047
792.37	0.045
792.80	0.052
793.24	0.046
793.68	0.047
794.11	0.048
794.55	0.047
794.99	0.049
795.42	0.049
795.86	0.050
796.30	0.047
796.73	0.046
797.17	0.045
797.61	0.047
798.04	0.051
798.48	0.047
798.91	0.048
799.35	0.046
799.79	0.046
800.22	0.050
800.66	0.046
801.10	0.048
801.53	0.054
801.97	0.047
802.40	0.043
802.84	0.044
803.28	0.044
803.71	0.044
804.15	0.048
804.58	0.050
805.02	0.049
805.46	0.044
805.89	0.048
806.33	0.050
806.76	0.048
807.20	0.046
807.63	0.048
808.07	0.049
808.51	0.046
808.94	0.050
809.38	0.047
809.81	0.050
810.25	0.047
810.68	0.047
811.12	0.047
811.55	0.045
811.99	0.048
812.42	0.046
812.86	0.050
813.29	0.048
813.73	0.047
814.17	0.042
814.60	0.046
815.04	0.042
815.47	0.044
815.91	0.043
816.34	0.047
816.78	0.048
817.21	0.050
817.65	0.048
818.08	0.048
818.52	0.047
818.95	0.048
819.39	0.052
819.82	0.046
820.25	0.051
820.69	0.046
821.12	0.049
821.56	0.046
821.99	0.047
822.43	0.049
822.86	0.050
823.30	0.048
823.73	0.048
824.17	0.052
824.60	0.050
825.04	0.048
825.47	0.048
825.90	0.045
826.34	0.050
826.77	0.050
827.21	0.051
827.64	0.047
828.08	0.053
828.51	0.051
828.94	0.050
829.38	0.050
829.81	0.050
830.25	0.051
830.68	0.049
831.11	0.055
831.55	0.052
831.98	0.053
832.42	0.052
832.85	0.053
833.28	0.054
833.72	0.053
834.15	0.058
834.58	0.049
835.02	0.053
835.45	0.053
835.88	0.056
836.32	0.056
836.75	0.054
837.19	0.057
837.62	0.052
838.05	0.055
838.49	0.054
838.92	0.054
839.35	0.056
839.79	0.051
840.22	0.055
840.65	0.058
841.09	0.054
841.52	0.055
841.95	0.054
842.39	0.052
842.82	0.059
843.25	0.056
843.68	0.058
844.12	0.059
844.55	0.053
844.98	0.058
845.42	0.059
845.85	0.056
846.28	0.057
846.71	0.052
847.15	0.054
847.58	0.058
848.01	0.053
848.45	0.055
848.88	0.053
849.31	0.056
849.74	0.056
850.18	0.051
850.61	0.062
851.04	0.054
851.47	0.056
851.91	0.051
852.34	0.054
852.77	0.056
853.20	0.059
853.64	0.058
854.07	0.054
854.50	0.058
854.93	0.055
855.36	0.056
855.80	0.058
856.23	0.061
856.66	0.056
857.09	0.060
857.52	0.058
857.96	0.058
858.39	0.060
858.82	0.056
859.25	0.060
859.68	0.060
860.12	0.057
860.55	0.061
860.98	0.058
861.41	0.059
861.84	0.059
862.27	0.065
862.71	0.062
863.14	0.059
863.57	0.059
864.00	0.061
864.43	0.050
864.86	0.064
865.30	0.060
865.73	0.059
866.16	0.058
866.59	0.063
867.02	0.060
867.45	0.058
867.88	0.063
868.31	0.061
868.75	0.060
869.18	0.058
869.61	0.066
870.04	0.065
870.47	0.057
870.90	0.066
871.33	0.061
871.76	0.061
872.19	0.056
872.62	0.066
873.06	0.066
873.49	0.062
873.92	0.063
874.35	0.063
874.78	0.070
875.21	0.059
875.64	0.068
876.07	0.064
876.50	0.057
876.93	0.061
877.36	0.070
877.79	0.064
878.22	0.055
878.65	0.063
879.08	0.070
879.51	0.063
879.94	0.063
880.37	0.064
880.80	0.058
881.23	0.063
881.67	0.062
882.10	0.066
882.53	0.068
882.96	0.068
883.39	0.071
883.82	0.072
884.25	0.066
884.68	0.069
885.11	0.067
885.54	0.070
885.97	0.065
886.39	0.062
886.82	0.066
887.25	0.066
887.68	0.070
888.11	0.065
888.54	0.065
888.97	0.062
889.40	0.068
889.83	0.073
890.26	0.068
890.69	0.066
891.12	0.066
891.55	0.071
891.98	0.069
892.41	0.069
892.84	0.072
893.27	0.069
893.70	0.069
894.13	0.067
894.56	0.074
894.98	0.070
895.41	0.072
895.84	0.074
896.27	0.066
896.70	0.073
897.13	0.068
897.56	0.071
897.99	0.070
898.42	0.072
898.85	0.072
899.27	0.073
899.70	0.073
900.13	0.071
900.56	0.074
900.99	0.073
901.42	0.072
901.85	0.072
902.28	0.076
902.70	0.076
903.13	0.075
903.56	0.080
903.99	0.075
904.42	0.077
904.85	0.073
905.27	0.072
905.70	0.076
906.13	0.072
906.56	0.074
906.99	0.074
907.42	0.073
907.84	0.073
908.27	0.074
908.70	0.072
909.13	0.071
909.56	0.071
909.98	0.074
910.41	0.071
910.84	0.073
911.27	0.070
911.70	0.072
912.12	0.071
912.55	0.074
912.98	0.071
913.41	0.073
913.84	0.069
914.26	0.071
914.69	0.071
915.12	0.077
915.55	0.066
915.97	0.073
916.40	0.074
916.83	0.071
917.26	0.074
917.68	0.076
918.11	0.079
918.54	0.078
918.97	0.073
919.39	0.076
919.82	0.076
920.25	0.076
920.67	0.071
921.10	0.075
921.53	0.073
921.96	0.077
922.38	0.080
922.81	0.080
923.24	0.080
923.66	0.078
924.09	0.076
924.52	0.077
924.94	0.077
925.37	0.084
925.80	0.081
926.22	0.082
926.65	0.085
927.08	0.082
927.50	0.085
927.93	0.084
928.36	0.084
928.78	0.089
929.21	0.089
929.64	0.090
930.06	0.092
930.49	0.092
930.92	0.088
931.34	0.093
931.77	0.092
932.20	0.093
932.62	0.090
933.05	0.090
933.47	0.097
933.90	0.095
934.33	0.100
934.75	0.098
935.18	0.098
935.61	0.100
936.03	0.100
936.46	0.102
936.88	0.108
937.31	0.108
937.73	0.111
938.16	0.108
938.59	0.110
939.01	0.118
939.44	0.119
939.86	0.116
940.29	0.114
940.71	0.124
941.14	0.119
941.57	0.125
941.99	0.130
942.42	0.130
942.84	0.123
943.27	0.124
943.69	0.129
944.12	0.139
944.54	0.137
944.97	0.128
945.39	0.135
945.82	0.142
946.24	0.136
946.67	0.151
947.09	0.145
947.52	0.147
947.94	0.153
948.37	0.151
948.79	0.155
949.22	0.157
949.64	0.157
950.07	0.160
950.49	0.165
950.92	0.158
951.34	0.168
951.77	0.175
952.19	0.176
952.62	0.174
953.04	0.184
953.47	0.185
953.89	0.186
954.32	0.184
954.74	0.192
955.17	0.192
955.59	0.190
956.01	0.201
956.44	0.199
956.86	0.197
957.29	0.207
957.71	0.211
958.14	0.208
958.56	0.218
958.98	0.216
959.41	0.215
959.83	0.223
960.26	0.225
960.68	0.226
961.10	0.227
961.53	0.218
961.95	0.225
962.38	0.232
962.80	0.228
963.22	0.226
963.65	0.228
964.07	0.232
964.50	0.228
964.92	0.237
965.34	0.235
965.77	0.233
966.19	0.231
966.61	0.237
967.04	0.237
967.46	0.237
967.88	0.234
968.31	0.235
968.73	0.240
969.15	0.235
969.58	0.238
970.00	0.237
970.42	0.241
970.85	0.233
971.27	0.239
971.69	0.237
972.12	0.233
972.54	0.238
972.96	0.241
973.39	0.239
973.81	0.241
974.23	0.247
974.65	0.249
975.08	0.242
975.50	0.242
975.92	0.245
976.35	0.244
976.77	0.245
977.19	0.242
977.61	0.245
978.04	0.241
978.46	0.237
978.88	0.244
979.30	0.245
979.73	0.241
980.15	0.241
980.57	0.243
980.99	0.246
981.42	0.240
981.84	0.246
982.26	0.249
982.68	0.243
983.11	0.245
983.53	0.247
983.95	0.248
984.37	0.240
984.79	0.238
985.22	0.243
985.64	0.243
986.06	0.236
986.48	0.250
986.90	0.240
987.33	0.234
987.75	0.238
988.17	0.244
988.59	0.238
989.01	0.226
989.43	0.234
989.86	0.234
990.28	0.235
990.70	0.233
991.12	0.235
991.54	0.240
991.96	0.231
992.39	0.230
992.81	0.229
993.23	0.226
993.65	0.228
994.07	0.232
994.49	0.234
994.91	0.224
995.34	0.228
995.76	0.233
996.18	0.230
996.60	0.224
997.02	0.225
997.44	0.237
997.86	0.227
998.28	0.218
998.70	0.226
999.12	0.219
999.55	0.215
999.97	0.216
1000.39	0.220
1000.81	0.215
1001.23	0.208
1001.65	0.220
1002.07	0.214
1002.49	0.209
1002.91	0.215
1003.33	0.217
1003.75	0.218
1004.17	0.205
1004.59	0.211
1005.01	0.212
1005.43	0.203
1005.85	0.207
1006.28	0.204
1006.70	0.214
1007.12	0.207
1007.54	0.206
1007.96	0.202
1008.38	0.202
1008.80	0.199
1009.22	0.201
1009.64	0.207
1010.06	0.198
1010.48	0.198
1010.90	0.200
1011.32	0.194
1011.74	0.193
1012.16	0.196
1012.58	0.204
1013.00	0.190
1013.42	0.192
1013.84	0.184
1014.26	0.191
1014.67	0.193
1015.09	0.184
1015.51	0.202
1015.93	0.188
1016.35	0.172
1016.77	0.186
1017.19	0.186
1017.61	0.171
1018.03	0.174
1018.45	0.184
1018.87	0.181
1019.29	0.174
1019.71	0.170
1020.13	0.183
1020.55	0.185
1020.97	0.163
1021.38	0.178
1021.80	0.168
1022.22	0.170
1022.64	0.164
1023.06	0.175
1023.48	0.159
1023.90	0.163
1024.32	0.161
1024.74	0.164
1025.15	0.169
1025.57	0.163
1025.99	0.172
1026.41	0.175
1026.83	0.167
1027.25	0.167
1027.67	0.180
1028.08	0.159
1028.50	0.167
1028.92	0.155
1029.34	0.164
1029.76	0.161
1030.18	0.164
1030.60	0.150
1031.01	0.162
1031.43	0.146
1031.85	0.153
1032.27	0.161
1032.69	0.138
1033.10	0.144
1033.52	0.151
1033.94	0.165
1034.36	0.142
1034.78	0.147
1035.19	0.137
1035.61	0.151
1036.03	0.132
1036.45	0.157
1036.87	0.158
1037.28	0.140
1037.70	0.134
1038.12	0.146
1038.54	0.142
1038.95	0.140
1039.37	0.141
1039.79	0.140
1040.21	0.136
1040.62	0.102
1041.04	0.145
1041.46	0.152
1041.88	0.133
1042.29	0.134
1042.71	0.154
1043.13	0.120
1043.55	0.143
1043.96	0.144
1044.38	0.133
1044.80	0.155
1045.21	0.131
1045.63	0.142
1046.05	0.139
1046.47	0.130
1046.88	0.132
1047.30	0.142
1047.72	0.145
1048.13	0.130
1048.55	0.139
1048.97	0.155
1049.38	0.127
1049.80	0.112
1050.22	0.141
1050.63	0.136
1051.05	0.103
1051.47	0.152
1051.88	0.117
1052.30	0.144
1052.72	0.104
1053.13	0.143
1053.55	0.131
1053.97	0.111
1054.38	0.113
1054.80	0.156
1055.21	0.141
1055.63	0.125
1056.05	0.137
1056.46	0.164
1056.88	0.140
1057.29	0.125
1057.71	0.166
1058.13	0.134
1058.54	0.126
1058.96	0.129
1059.37	0.147
1059.79	0.131
1060.21	0.100
1060.62	0.158
1061.04	0.192
1061.45	0.141
1061.87	0.153
1062.28	0.202
1062.70	0.144
1063.12	0.159
1063.53	0.108
1063.95	0.200
1064.36	0.187
1064.78	0.162
1065.19	0.197
1065.61	0.211
1066.02	0.110
1066.44	0.189
1066.85	0.178
1067.27	0.161
1067.68	0.132
1068.10	0.173
1068.51	0.276
1068.93	0.118
1069.35	0.126
1069.76	0.189
1070.17	0.170
1070.59	0.136
1071.00	0.229
1071.42	0.186
1071.83	0.198
1072.25	0.196
1072.66	0.200
1073.08	0.193
1073.49	0.186
1073.91	0.184
1074.32	0.467
1074.74	0.258
1075.15	0.164
1075.57	0.316
1075.98	0.189
1076.40	0.209
1076.81	0.238
1077.22	0.581
1077.64	0.375
1078.05	0.232
1078.47	0.104
1078.88	0.424
1079.30	0.200
1079.71	0.444
1080.12	0.187
1080.54	0.480
1080.95	0.384
1081.37	0.391
1081.78	-0.000
1082.19	0.373
1082.61	0.520
1083.02	-0.000
1083.44	1.041
1083.85	0.339
1084.26	0.482
1084.68	0.692
1085.09	0.899
1085.50	0.413
1085.92	1.313
1086.33	-0.000
1086.74	0.933
1087.16	0.301
1087.57	-0.000
1087.98	-0.000
1088.40	0.413
1088.81	0.378
1089.22	-0.000
1089.64	0.364
1090.05	0.666
1090.46	-0.000
1090.88	-0.000
1091.29	0.313
1091.70	0.458
1092.12	-0.000
1092.53	-0.000
1092.94	0.616
1093.36	0.938
1093.77	-0.000
1094.18	1.053
1094.59	-0.000
1095.01	-0.000
1095.42	-0.000
1095.83	-0.000
1096.25	0.673
1096.66	1.869
1097.07	0.343
1097.48	0.560
1097.90	-0.000
1098.31	-0.000
1098.72	0.497
1099.13	0.271
>>>>>End Processed Spectral Data<<<<<
