SpectraSuite Data File
++++++++++++++++++++++++++++++++++++
Date: Sun Apr 24 18:05:24 CEST 2016
User: spectrasuite
Dark Spectrum Present: Yes
Reference Spectrum Present: Yes
Number of Sampled Component Spectra: 1
Spectrometers: HR+C0708
Integration Time (usec): 1000 (HR+C0708)
Spectra Averaged: 10 (HR+C0708)
Boxcar Smoothing: 0 (HR+C0708)
Correct for Electrical Dark: No (HR+C0708)
Strobe/Lamp Enabled: No (HR+C0708)
Correct for Detector Non-linearity: No (HR+C0708)
Correct for Stray Light: No (HR+C0708)
Number of Pixels in Processed Spectrum: 2048
>>>>>Begin Processed Spectral Data<<<<<
188.76	-0.000
189.23	-0.000
189.70	-0.000
190.17	-0.000
190.64	-0.000
191.12	-0.000
191.59	-0.000
192.06	-0.000
192.53	-0.000
193.01	-0.000
193.48	-0.000
193.95	-0.000
194.42	-0.000
194.90	-0.000
195.37	-0.000
195.84	-0.000
196.31	-0.000
196.78	-0.000
197.26	-0.000
197.73	-0.000
198.20	-0.000
198.67	-0.000
199.14	-0.000
199.62	-0.000
200.09	-0.000
200.56	-0.000
201.03	-0.000
201.50	0.993
201.97	-0.000
202.45	-0.000
202.92	1.098
203.39	1.533
203.86	-0.000
204.33	1.464
204.80	-0.000
205.28	1.321
205.75	-0.000
206.22	-0.000
206.69	-0.000
207.16	-0.000
207.63	-0.000
208.11	1.032
208.58	-0.000
209.05	-0.000
209.52	-0.000
209.99	-0.000
210.46	-0.000
210.93	-0.000
211.41	-0.000
211.88	-0.000
212.35	-0.000
212.82	-0.000
213.29	-0.000
213.76	-0.000
214.23	-0.000
214.70	-0.000
215.18	-0.000
215.65	-0.000
216.12	-0.000
216.59	-0.000
217.06	-0.000
217.53	-0.000
218.00	-0.000
218.47	-0.000
218.94	-0.000
219.41	-0.000
219.89	-0.000
220.36	-0.000
220.83	1.572
221.30	-0.000
221.77	-0.000
222.24	-0.000
222.71	-0.000
223.18	-0.000
223.65	-0.000
224.12	-0.000
224.59	-0.000
225.06	-0.000
225.54	-0.000
226.01	1.392
226.48	-0.000
226.95	-0.000
227.42	-0.000
227.89	-0.000
228.36	-0.000
228.83	-0.000
229.30	-0.000
229.77	-0.000
230.24	2.794
230.71	-0.000
231.18	-0.000
231.65	2.542
232.12	-0.000
232.59	-0.000
233.06	-0.000
233.53	-0.000
234.00	-0.000
234.47	2.353
234.94	-0.000
235.41	2.797
235.88	-0.000
236.35	-0.000
236.82	-0.000
237.29	-0.000
237.76	2.537
238.23	-0.000
238.70	-0.000
239.17	2.552
239.64	-0.000
240.11	-0.000
240.58	-0.000
241.05	-0.000
241.52	-0.000
241.99	-0.000
242.46	-0.000
242.93	-0.000
243.40	2.939
243.87	3.370
244.34	2.616
244.81	-0.000
245.28	-0.000
245.75	-0.000
246.22	-0.000
246.69	-0.000
247.16	3.107
247.63	3.457
248.10	2.994
248.57	-0.000
249.04	-0.000
249.51	-0.000
249.98	-0.000
250.45	-0.000
250.92	-0.000
251.39	-0.000
251.85	-0.000
252.32	-0.000
252.79	-0.000
253.26	2.961
253.73	-0.000
254.20	3.418
254.67	2.864
255.14	-0.000
255.61	3.582
256.08	3.605
256.55	-0.000
257.02	2.862
257.49	2.855
257.95	2.657
258.42	2.744
258.89	2.732
259.36	2.713
259.83	2.544
260.30	2.734
260.77	2.802
261.24	2.409
261.71	2.516
262.17	2.481
262.64	2.470
263.11	2.454
263.58	2.489
264.05	2.313
264.52	2.395
264.99	2.226
265.46	2.253
265.92	2.302
266.39	2.225
266.86	2.244
267.33	2.235
267.80	2.118
268.27	2.208
268.74	2.157
269.20	2.162
269.67	2.170
270.14	2.067
270.61	2.050
271.08	2.062
271.55	2.011
272.01	2.040
272.48	2.022
272.95	1.988
273.42	1.962
273.89	2.012
274.36	1.913
274.82	1.926
275.29	1.862
275.76	1.879
276.23	1.895
276.70	1.870
277.16	1.831
277.63	1.857
278.10	1.825
278.57	1.809
279.04	1.833
279.50	1.816
279.97	1.817
280.44	1.782
280.91	1.774
281.38	1.773
281.84	1.733
282.31	1.766
282.78	1.761
283.25	1.736
283.72	1.697
284.18	1.710
284.65	1.684
285.12	1.670
285.59	1.654
286.05	1.665
286.52	1.656
286.99	1.657
287.46	1.653
287.92	1.644
288.39	1.615
288.86	1.617
289.33	1.599
289.79	1.596
290.26	1.589
290.73	1.573
291.20	1.562
291.66	1.562
292.13	1.553
292.60	1.548
293.07	1.538
293.53	1.508
294.00	1.510
294.47	1.511
294.93	1.506
295.40	1.493
295.87	1.487
296.34	1.487
296.80	1.462
297.27	1.451
297.74	1.442
298.20	1.445
298.67	1.418
299.14	1.428
299.60	1.420
300.07	1.407
300.54	1.392
301.01	1.391
301.47	1.382
301.94	1.366
302.41	1.365
302.87	1.367
303.34	1.368
303.81	1.340
304.27	1.331
304.74	1.327
305.21	1.326
305.67	1.306
306.14	1.298
306.61	1.305
307.07	1.286
307.54	1.280
308.01	1.279
308.47	1.271
308.94	1.263
309.40	1.265
309.87	1.258
310.34	1.244
310.80	1.244
311.27	1.241
311.74	1.228
312.20	1.218
312.67	1.220
313.13	1.203
313.60	1.203
314.07	1.200
314.53	1.188
315.00	1.189
315.47	1.186
315.93	1.170
316.40	1.171
316.86	1.162
317.33	1.160
317.80	1.155
318.26	1.146
318.73	1.148
319.19	1.146
319.66	1.138
320.13	1.138
320.59	1.122
321.06	1.128
321.52	1.121
321.99	1.114
322.45	1.108
322.92	1.101
323.39	1.094
323.85	1.098
324.32	1.085
324.78	1.081
325.25	1.087
325.71	1.078
326.18	1.075
326.64	1.081
327.11	1.063
327.58	1.057
328.04	1.056
328.51	1.054
328.97	1.052
329.44	1.043
329.90	1.043
330.37	1.046
330.83	1.025
331.30	1.034
331.76	1.024
332.23	1.021
332.69	1.014
333.16	1.010
333.62	1.008
334.09	1.005
334.56	1.000
335.02	0.993
335.49	0.990
335.95	0.974
336.42	0.976
336.88	0.975
337.35	0.969
337.81	0.961
338.28	0.969
338.74	0.961
339.20	0.959
339.67	0.956
340.13	0.957
340.60	0.948
341.06	0.935
341.53	0.931
341.99	0.937
342.46	0.923
342.92	0.915
343.39	0.916
343.85	0.910
344.32	0.906
344.78	0.903
345.25	0.893
345.71	0.894
346.17	0.885
346.64	0.886
347.10	0.883
347.57	0.872
348.03	0.863
348.50	0.864
348.96	0.849
349.43	0.843
349.89	0.841
350.35	0.836
350.82	0.833
351.28	0.827
351.75	0.827
352.21	0.813
352.67	0.806
353.14	0.809
353.60	0.795
354.07	0.783
354.53	0.774
355.00	0.772
355.46	0.763
355.92	0.754
356.39	0.742
356.85	0.734
357.31	0.733
357.78	0.723
358.24	0.717
358.71	0.711
359.17	0.708
359.63	0.698
360.10	0.694
360.56	0.688
361.03	0.685
361.49	0.678
361.95	0.670
362.42	0.674
362.88	0.663
363.34	0.660
363.81	0.661
364.27	0.655
364.73	0.651
365.20	0.653
365.66	0.642
366.12	0.641
366.59	0.637
367.05	0.639
367.51	0.632
367.98	0.631
368.44	0.625
368.90	0.623
369.37	0.622
369.83	0.622
370.29	0.618
370.76	0.617
371.22	0.614
371.68	0.610
372.15	0.606
372.61	0.600
373.07	0.603
373.54	0.604
374.00	0.604
374.46	0.595
374.92	0.595
375.39	0.596
375.85	0.593
376.31	0.592
376.78	0.585
377.24	0.591
377.70	0.583
378.16	0.581
378.63	0.584
379.09	0.583
379.55	0.578
380.01	0.581
380.48	0.575
380.94	0.574
381.40	0.568
381.87	0.568
382.33	0.565
382.79	0.566
383.25	0.562
383.72	0.564
384.18	0.560
384.64	0.557
385.10	0.559
385.56	0.559
386.03	0.553
386.49	0.557
386.95	0.552
387.41	0.549
387.88	0.546
388.34	0.542
388.80	0.542
389.26	0.544
389.72	0.542
390.19	0.544
390.65	0.539
391.11	0.536
391.57	0.536
392.04	0.532
392.50	0.531
392.96	0.528
393.42	0.528
393.88	0.528
394.34	0.526
394.81	0.521
395.27	0.525
395.73	0.522
396.19	0.516
396.65	0.520
397.12	0.513
397.58	0.515
398.04	0.515
398.50	0.512
398.96	0.510
399.42	0.515
399.89	0.508
400.35	0.510
400.81	0.508
401.27	0.507
401.73	0.505
402.19	0.501
402.65	0.498
403.12	0.499
403.58	0.497
404.04	0.496
404.50	0.496
404.96	0.490
405.42	0.492
405.88	0.493
406.34	0.489
406.81	0.490
407.27	0.484
407.73	0.485
408.19	0.482
408.65	0.482
409.11	0.478
409.57	0.478
410.03	0.477
410.49	0.479
410.96	0.478
411.42	0.476
411.88	0.472
412.34	0.471
412.80	0.472
413.26	0.466
413.72	0.469
414.18	0.467
414.64	0.464
415.10	0.464
415.56	0.467
416.02	0.466
416.48	0.462
416.95	0.459
417.41	0.459
417.87	0.456
418.33	0.458
418.79	0.452
419.25	0.456
419.71	0.452
420.17	0.454
420.63	0.449
421.09	0.447
421.55	0.447
422.01	0.448
422.47	0.449
422.93	0.448
423.39	0.445
423.85	0.446
424.31	0.441
424.77	0.439
425.23	0.440
425.69	0.439
426.15	0.440
426.61	0.440
427.07	0.434
427.53	0.433
427.99	0.432
428.45	0.432
428.91	0.433
429.37	0.430
429.83	0.427
430.29	0.428
430.75	0.429
431.21	0.427
431.67	0.426
432.13	0.426
432.59	0.423
433.05	0.421
433.51	0.419
433.97	0.421
434.43	0.419
434.89	0.419
435.35	0.420
435.81	0.417
436.27	0.412
436.73	0.410
437.19	0.410
437.65	0.417
438.11	0.412
438.57	0.412
439.03	0.413
439.48	0.405
439.94	0.408
440.40	0.405
440.86	0.408
441.32	0.403
441.78	0.409
442.24	0.404
442.70	0.403
443.16	0.399
443.62	0.398
444.08	0.400
444.54	0.399
444.99	0.396
445.45	0.393
445.91	0.396
446.37	0.394
446.83	0.395
447.29	0.392
447.75	0.391
448.21	0.393
448.67	0.392
449.12	0.389
449.58	0.389
450.04	0.389
450.50	0.384
450.96	0.389
451.42	0.382
451.88	0.382
452.34	0.387
452.79	0.382
453.25	0.383
453.71	0.385
454.17	0.379
454.63	0.381
455.09	0.378
455.55	0.378
456.00	0.375
456.46	0.377
456.92	0.375
457.38	0.376
457.84	0.372
458.30	0.370
458.75	0.372
459.21	0.370
459.67	0.371
460.13	0.372
460.59	0.368
461.04	0.368
461.50	0.366
461.96	0.366
462.42	0.367
462.88	0.361
463.33	0.362
463.79	0.362
464.25	0.361
464.71	0.360
465.17	0.360
465.62	0.360
466.08	0.359
466.54	0.362
467.00	0.358
467.46	0.360
467.91	0.355
468.37	0.358
468.83	0.354
469.29	0.357
469.74	0.355
470.20	0.354
470.66	0.355
471.12	0.348
471.57	0.350
472.03	0.350
472.49	0.350
472.95	0.348
473.40	0.348
473.86	0.346
474.32	0.345
474.78	0.345
475.23	0.344
475.69	0.346
476.15	0.341
476.60	0.345
477.06	0.341
477.52	0.340
477.98	0.341
478.43	0.341
478.89	0.339
479.35	0.339
479.80	0.339
480.26	0.338
480.72	0.338
481.18	0.336
481.63	0.334
482.09	0.334
482.55	0.334
483.00	0.331
483.46	0.332
483.92	0.330
484.37	0.332
484.83	0.331
485.29	0.329
485.74	0.330
486.20	0.330
486.66	0.329
487.11	0.328
487.57	0.327
488.03	0.325
488.48	0.327
488.94	0.322
489.40	0.322
489.85	0.325
490.31	0.325
490.77	0.324
491.22	0.324
491.68	0.322
492.13	0.322
492.59	0.321
493.05	0.321
493.50	0.320
493.96	0.318
494.42	0.317
494.87	0.316
495.33	0.314
495.78	0.319
496.24	0.315
496.70	0.316
497.15	0.315
497.61	0.315
498.06	0.313
498.52	0.312
498.98	0.311
499.43	0.313
499.89	0.312
500.34	0.312
500.80	0.309
501.25	0.309
501.71	0.307
502.17	0.309
502.62	0.308
503.08	0.309
503.53	0.304
503.99	0.304
504.44	0.306
504.90	0.305
505.36	0.303
505.81	0.304
506.27	0.304
506.72	0.305
507.18	0.305
507.63	0.304
508.09	0.302
508.54	0.300
509.00	0.300
509.45	0.301
509.91	0.301
510.36	0.300
510.82	0.301
511.27	0.297
511.73	0.297
512.19	0.297
512.64	0.296
513.10	0.298
513.55	0.297
514.01	0.294
514.46	0.294
514.92	0.293
515.37	0.294
515.83	0.292
516.28	0.292
516.73	0.290
517.19	0.290
517.64	0.289
518.10	0.290
518.55	0.290
519.01	0.289
519.46	0.287
519.92	0.290
520.37	0.284
520.83	0.285
521.28	0.285
521.74	0.287
522.19	0.288
522.65	0.286
523.10	0.286
523.55	0.283
524.01	0.284
524.46	0.284
524.92	0.283
525.37	0.281
525.83	0.283
526.28	0.282
526.73	0.281
527.19	0.282
527.64	0.283
528.10	0.281
528.55	0.278
529.01	0.281
529.46	0.278
529.91	0.278
530.37	0.277
530.82	0.276
531.28	0.277
531.73	0.275
532.18	0.278
532.64	0.275
533.09	0.273
533.54	0.276
534.00	0.272
534.45	0.278
534.91	0.274
535.36	0.276
535.81	0.275
536.27	0.271
536.72	0.273
537.17	0.275
537.63	0.273
538.08	0.269
538.54	0.271
538.99	0.271
539.44	0.272
539.90	0.269
540.35	0.269
540.80	0.268
541.26	0.269
541.71	0.268
542.16	0.268
542.62	0.268
543.07	0.269
543.52	0.268
543.98	0.270
544.43	0.265
544.88	0.266
545.34	0.266
545.79	0.269
546.24	0.263
546.69	0.266
547.15	0.264
547.60	0.266
548.05	0.265
548.51	0.263
548.96	0.264
549.41	0.265
549.86	0.264
550.32	0.265
550.77	0.264
551.22	0.263
551.68	0.263
552.13	0.263
552.58	0.260
553.03	0.263
553.49	0.265
553.94	0.260
554.39	0.261
554.84	0.262
555.30	0.260
555.75	0.261
556.20	0.261
556.65	0.261
557.11	0.261
557.56	0.258
558.01	0.260
558.46	0.259
558.92	0.257
559.37	0.260
559.82	0.261
560.27	0.257
560.72	0.258
561.18	0.258
561.63	0.257
562.08	0.257
562.53	0.257
562.99	0.257
563.44	0.257
563.89	0.255
564.34	0.256
564.79	0.257
565.25	0.255
565.70	0.254
566.15	0.256
566.60	0.254
567.05	0.256
567.50	0.254
567.96	0.254
568.41	0.255
568.86	0.254
569.31	0.255
569.76	0.253
570.21	0.254
570.67	0.255
571.12	0.255
571.57	0.254
572.02	0.253
572.47	0.253
572.92	0.253
573.37	0.251
573.83	0.253
574.28	0.252
574.73	0.250
575.18	0.251
575.63	0.254
576.08	0.249
576.53	0.251
576.98	0.251
577.44	0.249
577.89	0.252
578.34	0.249
578.79	0.251
579.24	0.250
579.69	0.251
580.14	0.250
580.59	0.248
581.04	0.249
581.49	0.248
581.95	0.251
582.40	0.251
582.85	0.249
583.30	0.250
583.75	0.250
584.20	0.250
584.65	0.248
585.10	0.250
585.55	0.249
586.00	0.251
586.45	0.250
586.90	0.251
587.35	0.249
587.80	0.249
588.25	0.251
588.71	0.251
589.16	0.251
589.61	0.250
590.06	0.251
590.51	0.251
590.96	0.250
591.41	0.250
591.86	0.252
592.31	0.249
592.76	0.251
593.21	0.249
593.66	0.255
594.11	0.252
594.56	0.250
595.01	0.250
595.46	0.252
595.91	0.252
596.36	0.251
596.81	0.252
597.26	0.253
597.71	0.253
598.16	0.252
598.61	0.252
599.06	0.254
599.51	0.254
599.96	0.256
600.41	0.253
600.86	0.254
601.31	0.254
601.76	0.253
602.21	0.254
602.65	0.254
603.10	0.257
603.55	0.255
604.00	0.253
604.45	0.254
604.90	0.253
605.35	0.251
605.80	0.255
606.25	0.256
606.70	0.255
607.15	0.255
607.60	0.253
608.05	0.253
608.50	0.255
608.95	0.252
609.39	0.256
609.84	0.255
610.29	0.255
610.74	0.254
611.19	0.253
611.64	0.255
612.09	0.254
612.54	0.253
612.99	0.255
613.44	0.254
613.88	0.255
614.33	0.254
614.78	0.253
615.23	0.255
615.68	0.252
616.13	0.254
616.58	0.252
617.03	0.253
617.47	0.253
617.92	0.251
618.37	0.252
618.82	0.252
619.27	0.252
619.72	0.252
620.17	0.250
620.61	0.251
621.06	0.253
621.51	0.252
621.96	0.251
622.41	0.253
622.86	0.252
623.30	0.253
623.75	0.255
624.20	0.252
624.65	0.252
625.10	0.252
625.54	0.253
625.99	0.252
626.44	0.252
626.89	0.252
627.34	0.255
627.78	0.252
628.23	0.251
628.68	0.252
629.13	0.252
629.58	0.254
630.02	0.251
630.47	0.252
630.92	0.254
631.37	0.253
631.81	0.253
632.26	0.255
632.71	0.255
633.16	0.254
633.61	0.252
634.05	0.252
634.50	0.255
634.95	0.254
635.40	0.255
635.84	0.255
636.29	0.256
636.74	0.255
637.18	0.256
637.63	0.257
638.08	0.256
638.53	0.256
638.97	0.256
639.42	0.257
639.87	0.256
640.32	0.256
640.76	0.259
641.21	0.259
641.66	0.258
642.10	0.258
642.55	0.258
643.00	0.257
643.44	0.260
643.89	0.259
644.34	0.259
644.79	0.260
645.23	0.261
645.68	0.261
646.13	0.261
646.57	0.262
647.02	0.261
647.47	0.263
647.91	0.261
648.36	0.260
648.81	0.263
649.25	0.262
649.70	0.262
650.15	0.263
650.59	0.262
651.04	0.262
651.48	0.265
651.93	0.265
652.38	0.264
652.82	0.265
653.27	0.262
653.72	0.264
654.16	0.265
654.61	0.264
655.06	0.263
655.50	0.261
655.95	0.261
656.39	0.257
656.84	0.259
657.29	0.265
657.73	0.264
658.18	0.265
658.62	0.262
659.07	0.263
659.52	0.262
659.96	0.263
660.41	0.263
660.85	0.260
661.30	0.260
661.74	0.261
662.19	0.259
662.64	0.259
663.08	0.259
663.53	0.258
663.97	0.258
664.42	0.257
664.86	0.256
665.31	0.256
665.75	0.253
666.20	0.256
666.65	0.255
667.09	0.253
667.54	0.253
667.98	0.252
668.43	0.252
668.87	0.250
669.32	0.247
669.76	0.246
670.21	0.246
670.65	0.244
671.10	0.244
671.54	0.243
671.99	0.241
672.43	0.239
672.88	0.240
673.32	0.237
673.77	0.236
674.21	0.233
674.66	0.234
675.10	0.233
675.55	0.228
675.99	0.229
676.44	0.225
676.88	0.224
677.33	0.224
677.77	0.223
678.22	0.220
678.66	0.214
679.11	0.215
679.55	0.214
679.99	0.212
680.44	0.212
680.88	0.210
681.33	0.207
681.77	0.204
682.22	0.205
682.66	0.205
683.11	0.201
683.55	0.201
683.99	0.198
684.44	0.196
684.88	0.195
685.33	0.192
685.77	0.192
686.21	0.189
686.66	0.190
687.10	0.186
687.55	0.184
687.99	0.185
688.44	0.186
688.88	0.183
689.32	0.182
689.77	0.179
690.21	0.180
690.65	0.178
691.10	0.178
691.54	0.175
691.99	0.175
692.43	0.173
692.87	0.173
693.32	0.174
693.76	0.174
694.20	0.173
694.65	0.170
695.09	0.168
695.53	0.168
695.98	0.168
696.42	0.169
696.86	0.167
697.31	0.164
697.75	0.166
698.19	0.164
698.64	0.165
699.08	0.165
699.52	0.163
699.97	0.163
700.41	0.163
700.85	0.163
701.30	0.159
701.74	0.161
702.18	0.160
702.63	0.159
703.07	0.160
703.51	0.162
703.96	0.159
704.40	0.161
704.84	0.161
705.28	0.162
705.73	0.160
706.17	0.161
706.61	0.157
707.06	0.156
707.50	0.154
707.94	0.156
708.38	0.155
708.83	0.157
709.27	0.156
709.71	0.157
710.15	0.157
710.60	0.154
711.04	0.155
711.48	0.156
711.92	0.154
712.37	0.152
712.81	0.156
713.25	0.154
713.69	0.153
714.13	0.155
714.58	0.156
715.02	0.153
715.46	0.152
715.90	0.151
716.35	0.152
716.79	0.154
717.23	0.154
717.67	0.154
718.11	0.154
718.56	0.154
719.00	0.154
719.44	0.152
719.88	0.151
720.32	0.152
720.76	0.153
721.21	0.151
721.65	0.152
722.09	0.152
722.53	0.150
722.97	0.151
723.41	0.151
723.86	0.153
724.30	0.152
724.74	0.152
725.18	0.151
725.62	0.151
726.06	0.152
726.50	0.151
726.95	0.150
727.39	0.151
727.83	0.149
728.27	0.151
728.71	0.148
729.15	0.151
729.59	0.152
730.03	0.148
730.48	0.150
730.92	0.148
731.36	0.149
731.80	0.151
732.24	0.150
732.68	0.150
733.12	0.149
733.56	0.150
734.00	0.150
734.44	0.151
734.89	0.150
735.33	0.152
735.77	0.154
736.21	0.149
736.65	0.147
737.09	0.149
737.53	0.151
737.97	0.150
738.41	0.150
738.85	0.153
739.29	0.149
739.73	0.147
740.17	0.153
740.61	0.150
741.05	0.152
741.49	0.151
741.93	0.149
742.37	0.147
742.81	0.149
743.26	0.148
743.70	0.148
744.14	0.146
744.58	0.148
745.02	0.149
745.46	0.149
745.90	0.147
746.34	0.149
746.78	0.148
747.22	0.149
747.66	0.148
748.10	0.148
748.54	0.146
748.98	0.145
749.42	0.146
749.86	0.149
750.29	0.146
750.73	0.142
751.17	0.144
751.61	0.146
752.05	0.149
752.49	0.144
752.93	0.144
753.37	0.143
753.81	0.142
754.25	0.145
754.69	0.144
755.13	0.142
755.57	0.144
756.01	0.144
756.45	0.146
756.89	0.145
757.33	0.146
757.77	0.144
758.21	0.142
758.64	0.143
759.08	0.140
759.52	0.145
759.96	0.142
760.40	0.142
760.84	0.141
761.28	0.142
761.72	0.145
762.16	0.143
762.60	0.142
763.03	0.142
763.47	0.141
763.91	0.141
764.35	0.140
764.79	0.141
765.23	0.140
765.67	0.139
766.11	0.138
766.54	0.137
766.98	0.140
767.42	0.139
767.86	0.140
768.30	0.140
768.74	0.143
769.17	0.144
769.61	0.142
770.05	0.139
770.49	0.138
770.93	0.141
771.37	0.136
771.80	0.139
772.24	0.138
772.68	0.138
773.12	0.138
773.56	0.136
774.00	0.139
774.43	0.136
774.87	0.137
775.31	0.137
775.75	0.135
776.19	0.137
776.62	0.138
777.06	0.138
777.50	0.138
777.94	0.136
778.37	0.134
778.81	0.138
779.25	0.136
779.69	0.136
780.13	0.138
780.56	0.139
781.00	0.137
781.44	0.135
781.88	0.137
782.31	0.137
782.75	0.134
783.19	0.136
783.63	0.137
784.06	0.134
784.50	0.138
784.94	0.134
785.37	0.136
785.81	0.139
786.25	0.138
786.69	0.134
787.12	0.132
787.56	0.136
788.00	0.136
788.43	0.136
788.87	0.137
789.31	0.135
789.75	0.138
790.18	0.133
790.62	0.134
791.06	0.132
791.49	0.133
791.93	0.131
792.37	0.136
792.80	0.132
793.24	0.133
793.68	0.133
794.11	0.131
794.55	0.135
794.99	0.133
795.42	0.133
795.86	0.139
796.30	0.134
796.73	0.133
797.17	0.133
797.61	0.129
798.04	0.131
798.48	0.132
798.91	0.130
799.35	0.132
799.79	0.136
800.22	0.136
800.66	0.133
801.10	0.134
801.53	0.131
801.97	0.134
802.40	0.134
802.84	0.130
803.28	0.128
803.71	0.132
804.15	0.128
804.58	0.132
805.02	0.133
805.46	0.130
805.89	0.127
806.33	0.127
806.76	0.130
807.20	0.134
807.63	0.130
808.07	0.132
808.51	0.129
808.94	0.128
809.38	0.131
809.81	0.128
810.25	0.134
810.68	0.130
811.12	0.131
811.55	0.131
811.99	0.129
812.42	0.130
812.86	0.133
813.29	0.127
813.73	0.130
814.17	0.128
814.60	0.131
815.04	0.134
815.47	0.132
815.91	0.125
816.34	0.129
816.78	0.132
817.21	0.131
817.65	0.131
818.08	0.127
818.52	0.130
818.95	0.133
819.39	0.128
819.82	0.130
820.25	0.130
820.69	0.129
821.12	0.131
821.56	0.130
821.99	0.129
822.43	0.123
822.86	0.130
823.30	0.130
823.73	0.128
824.17	0.125
824.60	0.127
825.04	0.129
825.47	0.129
825.90	0.126
826.34	0.128
826.77	0.127
827.21	0.131
827.64	0.130
828.08	0.127
828.51	0.130
828.94	0.129
829.38	0.126
829.81	0.128
830.25	0.130
830.68	0.134
831.11	0.129
831.55	0.133
831.98	0.136
832.42	0.132
832.85	0.131
833.28	0.136
833.72	0.134
834.15	0.131
834.58	0.132
835.02	0.134
835.45	0.135
835.88	0.132
836.32	0.134
836.75	0.132
837.19	0.136
837.62	0.135
838.05	0.135
838.49	0.135
838.92	0.136
839.35	0.134
839.79	0.133
840.22	0.135
840.65	0.131
841.09	0.136
841.52	0.133
841.95	0.134
842.39	0.131
842.82	0.129
843.25	0.135
843.68	0.135
844.12	0.129
844.55	0.134
844.98	0.134
845.42	0.133
845.85	0.126
846.28	0.131
846.71	0.131
847.15	0.139
847.58	0.136
848.01	0.138
848.45	0.139
848.88	0.134
849.31	0.131
849.74	0.132
850.18	0.134
850.61	0.134
851.04	0.137
851.47	0.134
851.91	0.133
852.34	0.136
852.77	0.135
853.20	0.133
853.64	0.134
854.07	0.138
854.50	0.140
854.93	0.133
855.36	0.134
855.80	0.132
856.23	0.131
856.66	0.136
857.09	0.135
857.52	0.133
857.96	0.129
858.39	0.135
858.82	0.130
859.25	0.138
859.68	0.133
860.12	0.134
860.55	0.135
860.98	0.136
861.41	0.131
861.84	0.135
862.27	0.132
862.71	0.136
863.14	0.135
863.57	0.136
864.00	0.130
864.43	0.133
864.86	0.131
865.30	0.138
865.73	0.133
866.16	0.133
866.59	0.133
867.02	0.126
867.45	0.131
867.88	0.135
868.31	0.141
868.75	0.136
869.18	0.136
869.61	0.138
870.04	0.135
870.47	0.135
870.90	0.134
871.33	0.135
871.76	0.137
872.19	0.139
872.62	0.133
873.06	0.132
873.49	0.138
873.92	0.135
874.35	0.134
874.78	0.136
875.21	0.134
875.64	0.127
876.07	0.142
876.50	0.135
876.93	0.138
877.36	0.139
877.79	0.137
878.22	0.131
878.65	0.139
879.08	0.133
879.51	0.138
879.94	0.133
880.37	0.141
880.80	0.144
881.23	0.131
881.67	0.141
882.10	0.136
882.53	0.132
882.96	0.139
883.39	0.133
883.82	0.131
884.25	0.133
884.68	0.135
885.11	0.135
885.54	0.142
885.97	0.138
886.39	0.133
886.82	0.138
887.25	0.138
887.68	0.137
888.11	0.136
888.54	0.133
888.97	0.143
889.40	0.138
889.83	0.136
890.26	0.135
890.69	0.132
891.12	0.138
891.55	0.139
891.98	0.139
892.41	0.137
892.84	0.139
893.27	0.139
893.70	0.139
894.13	0.134
894.56	0.136
894.98	0.140
895.41	0.137
895.84	0.140
896.27	0.136
896.70	0.141
897.13	0.141
897.56	0.141
897.99	0.139
898.42	0.136
898.85	0.139
899.27	0.138
899.70	0.142
900.13	0.141
900.56	0.139
900.99	0.135
901.42	0.142
901.85	0.138
902.28	0.140
902.70	0.138
903.13	0.140
903.56	0.141
903.99	0.139
904.42	0.140
904.85	0.137
905.27	0.138
905.70	0.140
906.13	0.140
906.56	0.137
906.99	0.139
907.42	0.137
907.84	0.136
908.27	0.136
908.70	0.134
909.13	0.141
909.56	0.135
909.98	0.140
910.41	0.139
910.84	0.138
911.27	0.141
911.70	0.139
912.12	0.135
912.55	0.137
912.98	0.141
913.41	0.139
913.84	0.138
914.26	0.135
914.69	0.137
915.12	0.138
915.55	0.138
915.97	0.140
916.40	0.141
916.83	0.138
917.26	0.140
917.68	0.138
918.11	0.137
918.54	0.135
918.97	0.138
919.39	0.137
919.82	0.138
920.25	0.134
920.67	0.140
921.10	0.143
921.53	0.139
921.96	0.142
922.38	0.144
922.81	0.140
923.24	0.142
923.66	0.139
924.09	0.142
924.52	0.145
924.94	0.143
925.37	0.145
925.80	0.147
926.22	0.144
926.65	0.144
927.08	0.146
927.50	0.147
927.93	0.146
928.36	0.141
928.78	0.150
929.21	0.146
929.64	0.146
930.06	0.153
930.49	0.152
930.92	0.153
931.34	0.154
931.77	0.158
932.20	0.154
932.62	0.154
933.05	0.154
933.47	0.159
933.90	0.160
934.33	0.156
934.75	0.158
935.18	0.158
935.61	0.165
936.03	0.157
936.46	0.163
936.88	0.165
937.31	0.166
937.73	0.164
938.16	0.165
938.59	0.172
939.01	0.179
939.44	0.176
939.86	0.181
940.29	0.177
940.71	0.181
941.14	0.185
941.57	0.184
941.99	0.188
942.42	0.189
942.84	0.192
943.27	0.194
943.69	0.195
944.12	0.193
944.54	0.203
944.97	0.191
945.39	0.198
945.82	0.202
946.24	0.207
946.67	0.202
947.09	0.216
947.52	0.205
947.94	0.209
948.37	0.218
948.79	0.212
949.22	0.220
949.64	0.212
950.07	0.222
950.49	0.217
950.92	0.224
951.34	0.227
951.77	0.229
952.19	0.228
952.62	0.233
953.04	0.237
953.47	0.245
953.89	0.244
954.32	0.251
954.74	0.251
955.17	0.252
955.59	0.255
956.01	0.255
956.44	0.262
956.86	0.264
957.29	0.260
957.71	0.269
958.14	0.267
958.56	0.268
958.98	0.276
959.41	0.271
959.83	0.277
960.26	0.274
960.68	0.281
961.10	0.286
961.53	0.285
961.95	0.282
962.38	0.287
962.80	0.285
963.22	0.283
963.65	0.288
964.07	0.287
964.50	0.292
964.92	0.285
965.34	0.291
965.77	0.293
966.19	0.293
966.61	0.293
967.04	0.299
967.46	0.287
967.88	0.295
968.31	0.290
968.73	0.295
969.15	0.295
969.58	0.295
970.00	0.296
970.42	0.297
970.85	0.290
971.27	0.294
971.69	0.293
972.12	0.298
972.54	0.302
972.96	0.302
973.39	0.292
973.81	0.300
974.23	0.301
974.65	0.300
975.08	0.296
975.50	0.300
975.92	0.300
976.35	0.300
976.77	0.294
977.19	0.296
977.61	0.301
978.04	0.293
978.46	0.305
978.88	0.298
979.30	0.299
979.73	0.295
980.15	0.300
980.57	0.303
980.99	0.299
981.42	0.299
981.84	0.298
982.26	0.297
982.68	0.298
983.11	0.301
983.53	0.296
983.95	0.295
984.37	0.294
984.79	0.297
985.22	0.300
985.64	0.298
986.06	0.296
986.48	0.295
986.90	0.291
987.33	0.295
987.75	0.293
988.17	0.289
988.59	0.288
989.01	0.284
989.43	0.287
989.86	0.289
990.28	0.296
990.70	0.283
991.12	0.286
991.54	0.290
991.96	0.285
992.39	0.291
992.81	0.283
993.23	0.280
993.65	0.288
994.07	0.281
994.49	0.277
994.91	0.283
995.34	0.270
995.76	0.276
996.18	0.276
996.60	0.274
997.02	0.274
997.44	0.271
997.86	0.275
998.28	0.272
998.70	0.273
999.12	0.270
999.55	0.270
999.97	0.269
1000.39	0.272
1000.81	0.270
1001.23	0.270
1001.65	0.273
1002.07	0.277
1002.49	0.273
1002.91	0.264
1003.33	0.261
1003.75	0.265
1004.17	0.263
1004.59	0.259
1005.01	0.267
1005.43	0.268
1005.85	0.266
1006.28	0.260
1006.70	0.260
1007.12	0.264
1007.54	0.257
1007.96	0.253
1008.38	0.255
1008.80	0.261
1009.22	0.252
1009.64	0.253
1010.06	0.261
1010.48	0.253
1010.90	0.251
1011.32	0.252
1011.74	0.246
1012.16	0.250
1012.58	0.248
1013.00	0.244
1013.42	0.245
1013.84	0.235
1014.26	0.247
1014.67	0.249
1015.09	0.242
1015.51	0.245
1015.93	0.235
1016.35	0.239
1016.77	0.241
1017.19	0.236
1017.61	0.228
1018.03	0.240
1018.45	0.231
1018.87	0.241
1019.29	0.240
1019.71	0.238
1020.13	0.239
1020.55	0.235
1020.97	0.234
1021.38	0.227
1021.80	0.221
1022.22	0.221
1022.64	0.214
1023.06	0.218
1023.48	0.225
1023.90	0.219
1024.32	0.211
1024.74	0.219
1025.15	0.216
1025.57	0.217
1025.99	0.210
1026.41	0.227
1026.83	0.225
1027.25	0.219
1027.67	0.224
1028.08	0.203
1028.50	0.221
1028.92	0.211
1029.34	0.220
1029.76	0.232
1030.18	0.210
1030.60	0.213
1031.01	0.217
1031.43	0.222
1031.85	0.222
1032.27	0.218
1032.69	0.200
1033.10	0.224
1033.52	0.198
1033.94	0.206
1034.36	0.201
1034.78	0.202
1035.19	0.197
1035.61	0.198
1036.03	0.205
1036.45	0.200
1036.87	0.208
1037.28	0.200
1037.70	0.202
1038.12	0.180
1038.54	0.195
1038.95	0.195
1039.37	0.188
1039.79	0.194
1040.21	0.184
1040.62	0.194
1041.04	0.200
1041.46	0.208
1041.88	0.197
1042.29	0.209
1042.71	0.189
1043.13	0.208
1043.55	0.211
1043.96	0.203
1044.38	0.210
1044.80	0.207
1045.21	0.182
1045.63	0.187
1046.05	0.194
1046.47	0.190
1046.88	0.191
1047.30	0.207
1047.72	0.197
1048.13	0.182
1048.55	0.188
1048.97	0.194
1049.38	0.205
1049.80	0.184
1050.22	0.190
1050.63	0.203
1051.05	0.203
1051.47	0.207
1051.88	0.191
1052.30	0.208
1052.72	0.198
1053.13	0.175
1053.55	0.202
1053.97	0.212
1054.38	0.183
1054.80	0.199
1055.21	0.210
1055.63	0.200
1056.05	0.188
1056.46	0.186
1056.88	0.217
1057.29	0.250
1057.71	0.177
1058.13	0.220
1058.54	0.271
1058.96	0.179
1059.37	0.228
1059.79	0.226
1060.21	0.208
1060.62	0.204
1061.04	0.218
1061.45	0.202
1061.87	0.244
1062.28	0.214
1062.70	0.271
1063.12	0.272
1063.53	0.164
1063.95	0.218
1064.36	0.256
1064.78	0.276
1065.19	0.238
1065.61	0.281
1066.02	0.232
1066.44	0.239
1066.85	0.222
1067.27	0.321
1067.68	0.321
1068.10	0.251
1068.51	0.319
1068.93	0.262
1069.35	0.356
1069.76	0.328
1070.17	0.302
1070.59	0.290
1071.00	0.425
1071.42	0.201
1071.83	0.362
1072.25	0.466
1072.66	0.265
1073.08	0.469
1073.49	0.563
1073.91	0.395
1074.32	0.404
1074.74	0.449
1075.15	0.406
1075.57	0.337
1075.98	0.506
1076.40	0.439
1076.81	0.563
1077.22	0.293
1077.64	0.774
1078.05	0.949
1078.47	0.489
1078.88	0.729
1079.30	1.487
1079.71	-0.000
1080.12	-0.000
1080.54	1.437
1080.95	2.057
1081.37	-0.000
1081.78	0.403
1082.19	-0.000
1082.61	-0.000
1083.02	-0.000
1083.44	-0.000
1083.85	-0.000
1084.26	-0.000
1084.68	-0.000
1085.09	-0.000
1085.50	-0.000
1085.92	-0.000
1086.33	1.054
1086.74	1.005
1087.16	-0.000
1087.57	-0.000
1087.98	-0.000
1088.40	-0.000
1088.81	2.039
1089.22	-0.000
1089.64	-0.000
1090.05	-0.000
1090.46	-0.000
1090.88	-0.000
1091.29	-0.000
1091.70	-0.000
1092.12	-0.000
1092.53	-0.000
1092.94	-0.000
1093.36	-0.000
1093.77	-0.000
1094.18	-0.000
1094.59	-0.000
1095.01	-0.000
1095.42	-0.000
1095.83	-0.000
1096.25	-0.000
1096.66	-0.000
1097.07	-0.000
1097.48	-0.000
1097.90	-0.000
1098.31	1.351
1098.72	-0.000
1099.13	-0.000
>>>>>End Processed Spectral Data<<<<<
