SpectraSuite Data File
++++++++++++++++++++++++++++++++++++
Date: Sun Apr 24 12:54:58 CEST 2016
User: spectrasuite
Dark Spectrum Present: Yes
Reference Spectrum Present: Yes
Number of Sampled Component Spectra: 1
Spectrometers: HR+C0708
Integration Time (usec): 1000 (HR+C0708)
Spectra Averaged: 10 (HR+C0708)
Boxcar Smoothing: 0 (HR+C0708)
Correct for Electrical Dark: No (HR+C0708)
Strobe/Lamp Enabled: No (HR+C0708)
Correct for Detector Non-linearity: No (HR+C0708)
Correct for Stray Light: No (HR+C0708)
Number of Pixels in Processed Spectrum: 2048
>>>>>Begin Processed Spectral Data<<<<<
188.76	0.218
189.23	-0.000
189.70	0.301
190.17	-0.000
190.64	-0.000
191.12	0.602
191.59	0.753
192.06	-0.000
192.53	0.250
193.01	0.727
193.48	0.593
193.95	-0.000
194.42	-0.000
194.90	0.317
195.37	-0.000
195.84	-0.000
196.31	0.624
196.78	0.547
197.26	-0.000
197.73	0.614
198.20	0.392
198.67	-0.000
199.14	0.149
199.62	-0.000
200.09	0.401
200.56	0.812
201.03	0.769
201.50	0.459
201.97	0.423
202.45	0.764
202.92	0.566
203.39	0.553
203.86	0.603
204.33	0.705
204.80	0.598
205.28	0.341
205.75	0.839
206.22	0.687
206.69	0.406
207.16	0.547
207.63	0.453
208.11	0.352
208.58	0.544
209.05	0.534
209.52	0.809
209.99	0.489
210.46	0.377
210.93	0.764
211.41	0.533
211.88	0.374
212.35	0.731
212.82	0.695
213.29	0.455
213.76	0.424
214.23	0.660
214.70	0.804
215.18	0.700
215.65	0.395
216.12	0.420
216.59	0.520
217.06	0.400
217.53	0.417
218.00	0.884
218.47	0.596
218.94	0.428
219.41	0.578
219.89	0.721
220.36	0.823
220.83	0.770
221.30	0.935
221.77	0.726
222.24	0.616
222.71	0.767
223.18	0.828
223.65	0.715
224.12	0.850
224.59	1.116
225.06	1.058
225.54	0.835
226.01	0.684
226.48	1.098
226.95	1.081
227.42	1.024
227.89	1.551
228.36	1.275
228.83	1.224
229.30	1.228
229.77	1.436
230.24	1.436
230.71	1.548
231.18	1.520
231.65	1.722
232.12	1.425
232.59	1.472
233.06	1.689
233.53	1.744
234.00	1.637
234.47	1.741
234.94	2.188
235.41	1.825
235.88	1.933
236.35	1.955
236.82	2.161
237.29	1.985
237.76	2.044
238.23	2.121
238.70	2.061
239.17	1.972
239.64	2.121
240.11	2.653
240.58	2.237
241.05	2.203
241.52	2.194
241.99	2.426
242.46	2.218
242.93	2.342
243.40	2.254
243.87	2.266
244.34	2.091
244.81	2.368
245.28	2.852
245.75	2.458
246.22	2.592
246.69	2.434
247.16	2.472
247.63	2.462
248.10	2.373
248.57	2.559
249.04	2.727
249.51	2.381
249.98	2.861
250.45	2.561
250.92	2.407
251.39	2.537
251.85	2.573
252.32	3.107
252.79	2.496
253.26	2.408
253.73	2.806
254.20	2.646
254.67	2.350
255.14	2.599
255.61	2.676
256.08	2.545
256.55	2.693
257.02	2.518
257.49	2.777
257.95	2.623
258.42	2.611
258.89	2.677
259.36	2.576
259.83	2.770
260.30	3.370
260.77	3.020
261.24	2.580
261.71	2.630
262.17	2.871
262.64	2.651
263.11	2.650
263.58	2.812
264.05	2.920
264.52	2.881
264.99	2.525
265.46	2.700
265.92	2.830
266.39	2.629
266.86	2.959
267.33	2.841
267.80	2.609
268.27	2.816
268.74	2.727
269.20	2.946
269.67	2.911
270.14	2.609
270.61	2.652
271.08	2.813
271.55	2.555
272.01	2.632
272.48	2.804
272.95	2.548
273.42	2.609
273.89	2.637
274.36	2.799
274.82	2.550
275.29	2.517
275.76	2.522
276.23	2.712
276.70	2.577
277.16	2.558
277.63	2.576
278.10	2.552
278.57	2.471
279.04	2.634
279.50	2.608
279.97	2.556
280.44	2.365
280.91	2.483
281.38	2.529
281.84	2.443
282.31	2.512
282.78	2.816
283.25	2.544
283.72	2.493
284.18	2.630
284.65	2.479
285.12	2.462
285.59	2.492
286.05	2.701
286.52	2.666
286.99	2.438
287.46	2.577
287.92	2.539
288.39	2.418
288.86	2.532
289.33	2.499
289.79	2.553
290.26	2.533
290.73	2.426
291.20	2.527
291.66	2.536
292.13	2.406
292.60	2.380
293.07	2.523
293.53	2.363
294.00	2.407
294.47	2.556
294.93	2.485
295.40	2.376
295.87	2.509
296.34	2.565
296.80	2.411
297.27	2.408
297.74	2.375
298.20	2.605
298.67	2.339
299.14	2.431
299.60	2.501
300.07	2.481
300.54	2.303
301.01	2.396
301.47	2.340
301.94	2.338
302.41	2.314
302.87	2.376
303.34	2.483
303.81	2.282
304.27	2.325
304.74	2.270
305.21	2.330
305.67	2.288
306.14	2.277
306.61	2.348
307.07	2.320
307.54	2.241
308.01	2.352
308.47	2.326
308.94	2.302
309.40	2.403
309.87	2.400
310.34	2.392
310.80	2.333
311.27	2.306
311.74	2.375
312.20	2.350
312.67	2.230
313.13	2.292
313.60	2.420
314.07	2.299
314.53	2.228
315.00	2.273
315.47	2.315
315.93	2.255
316.40	2.253
316.86	2.260
317.33	2.235
317.80	2.199
318.26	2.277
318.73	2.235
319.19	2.156
319.66	2.124
320.13	2.188
320.59	2.117
321.06	2.099
321.52	2.111
321.99	2.073
322.45	2.012
322.92	1.950
323.39	1.982
323.85	1.936
324.32	1.892
324.78	1.859
325.25	1.818
325.71	1.752
326.18	1.693
326.64	1.684
327.11	1.632
327.58	1.555
328.04	1.506
328.51	1.466
328.97	1.410
329.44	1.338
329.90	1.281
330.37	1.245
330.83	1.183
331.30	1.129
331.76	1.072
332.23	1.016
332.69	0.959
333.16	0.904
333.62	0.860
334.09	0.809
334.56	0.758
335.02	0.712
335.49	0.667
335.95	0.621
336.42	0.576
336.88	0.540
337.35	0.511
337.81	0.475
338.28	0.446
338.74	0.423
339.20	0.395
339.67	0.363
340.13	0.340
340.60	0.315
341.06	0.289
341.53	0.270
341.99	0.254
342.46	0.238
342.92	0.221
343.39	0.208
343.85	0.197
344.32	0.186
344.78	0.178
345.25	0.169
345.71	0.162
346.17	0.156
346.64	0.148
347.10	0.138
347.57	0.131
348.03	0.121
348.50	0.115
348.96	0.115
349.43	0.110
349.89	0.108
350.35	0.099
350.82	0.101
351.28	0.102
351.75	0.097
352.21	0.097
352.67	0.091
353.14	0.092
353.60	0.088
354.07	0.086
354.53	0.086
355.00	0.088
355.46	0.085
355.92	0.082
356.39	0.078
356.85	0.082
357.31	0.079
357.78	0.076
358.24	0.074
358.71	0.075
359.17	0.073
359.63	0.073
360.10	0.072
360.56	0.073
361.03	0.072
361.49	0.070
361.95	0.070
362.42	0.070
362.88	0.067
363.34	0.068
363.81	0.067
364.27	0.067
364.73	0.070
365.20	0.070
365.66	0.067
366.12	0.067
366.59	0.065
367.05	0.066
367.51	0.066
367.98	0.065
368.44	0.065
368.90	0.064
369.37	0.067
369.83	0.062
370.29	0.064
370.76	0.063
371.22	0.063
371.68	0.063
372.15	0.061
372.61	0.062
373.07	0.063
373.54	0.062
374.00	0.062
374.46	0.062
374.92	0.061
375.39	0.060
375.85	0.061
376.31	0.060
376.78	0.060
377.24	0.060
377.70	0.060
378.16	0.056
378.63	0.058
379.09	0.059
379.55	0.058
380.01	0.059
380.48	0.057
380.94	0.058
381.40	0.057
381.87	0.057
382.33	0.057
382.79	0.058
383.25	0.057
383.72	0.060
384.18	0.058
384.64	0.057
385.10	0.056
385.56	0.058
386.03	0.057
386.49	0.057
386.95	0.055
387.41	0.057
387.88	0.058
388.34	0.057
388.80	0.057
389.26	0.058
389.72	0.058
390.19	0.056
390.65	0.057
391.11	0.057
391.57	0.058
392.04	0.056
392.50	0.055
392.96	0.054
393.42	0.052
393.88	0.055
394.34	0.055
394.81	0.053
395.27	0.055
395.73	0.055
396.19	0.053
396.65	0.054
397.12	0.053
397.58	0.052
398.04	0.052
398.50	0.052
398.96	0.051
399.42	0.051
399.89	0.052
400.35	0.052
400.81	0.051
401.27	0.051
401.73	0.051
402.19	0.049
402.65	0.050
403.12	0.050
403.58	0.048
404.04	0.049
404.50	0.050
404.96	0.049
405.42	0.050
405.88	0.049
406.34	0.047
406.81	0.048
407.27	0.046
407.73	0.048
408.19	0.045
408.65	0.045
409.11	0.044
409.57	0.047
410.03	0.045
410.49	0.049
410.96	0.046
411.42	0.046
411.88	0.044
412.34	0.043
412.80	0.046
413.26	0.042
413.72	0.044
414.18	0.043
414.64	0.040
415.10	0.044
415.56	0.045
416.02	0.045
416.48	0.043
416.95	0.040
417.41	0.041
417.87	0.040
418.33	0.042
418.79	0.040
419.25	0.044
419.71	0.041
420.17	0.042
420.63	0.041
421.09	0.040
421.55	0.040
422.01	0.041
422.47	0.040
422.93	0.040
423.39	0.041
423.85	0.042
424.31	0.041
424.77	0.039
425.23	0.044
425.69	0.041
426.15	0.040
426.61	0.039
427.07	0.040
427.53	0.042
427.99	0.040
428.45	0.041
428.91	0.045
429.37	0.042
429.83	0.041
430.29	0.040
430.75	0.041
431.21	0.040
431.67	0.041
432.13	0.042
432.59	0.042
433.05	0.042
433.51	0.038
433.97	0.040
434.43	0.040
434.89	0.042
435.35	0.043
435.81	0.039
436.27	0.040
436.73	0.041
437.19	0.039
437.65	0.043
438.11	0.041
438.57	0.041
439.03	0.041
439.48	0.042
439.94	0.039
440.40	0.041
440.86	0.041
441.32	0.042
441.78	0.042
442.24	0.041
442.70	0.040
443.16	0.040
443.62	0.037
444.08	0.042
444.54	0.043
444.99	0.041
445.45	0.039
445.91	0.042
446.37	0.044
446.83	0.041
447.29	0.043
447.75	0.042
448.21	0.045
448.67	0.042
449.12	0.041
449.58	0.045
450.04	0.042
450.50	0.042
450.96	0.047
451.42	0.041
451.88	0.043
452.34	0.044
452.79	0.043
453.25	0.046
453.71	0.043
454.17	0.042
454.63	0.046
455.09	0.043
455.55	0.045
456.00	0.044
456.46	0.043
456.92	0.042
457.38	0.044
457.84	0.042
458.30	0.044
458.75	0.044
459.21	0.042
459.67	0.046
460.13	0.045
460.59	0.044
461.04	0.045
461.50	0.046
461.96	0.045
462.42	0.043
462.88	0.042
463.33	0.044
463.79	0.043
464.25	0.045
464.71	0.043
465.17	0.045
465.62	0.044
466.08	0.045
466.54	0.044
467.00	0.044
467.46	0.046
467.91	0.045
468.37	0.045
468.83	0.044
469.29	0.046
469.74	0.046
470.20	0.045
470.66	0.045
471.12	0.043
471.57	0.047
472.03	0.046
472.49	0.047
472.95	0.048
473.40	0.047
473.86	0.046
474.32	0.046
474.78	0.047
475.23	0.045
475.69	0.047
476.15	0.046
476.60	0.049
477.06	0.048
477.52	0.047
477.98	0.047
478.43	0.048
478.89	0.049
479.35	0.047
479.80	0.050
480.26	0.049
480.72	0.050
481.18	0.050
481.63	0.049
482.09	0.049
482.55	0.049
483.00	0.048
483.46	0.049
483.92	0.050
484.37	0.049
484.83	0.046
485.29	0.048
485.74	0.050
486.20	0.051
486.66	0.048
487.11	0.051
487.57	0.049
488.03	0.050
488.48	0.048
488.94	0.049
489.40	0.051
489.85	0.049
490.31	0.051
490.77	0.051
491.22	0.051
491.68	0.049
492.13	0.051
492.59	0.051
493.05	0.051
493.50	0.052
493.96	0.052
494.42	0.050
494.87	0.050
495.33	0.049
495.78	0.052
496.24	0.052
496.70	0.052
497.15	0.051
497.61	0.052
498.06	0.051
498.52	0.047
498.98	0.051
499.43	0.053
499.89	0.052
500.34	0.051
500.80	0.052
501.25	0.053
501.71	0.049
502.17	0.053
502.62	0.053
503.08	0.052
503.53	0.050
503.99	0.051
504.44	0.052
504.90	0.050
505.36	0.050
505.81	0.052
506.27	0.050
506.72	0.053
507.18	0.051
507.63	0.051
508.09	0.052
508.54	0.050
509.00	0.051
509.45	0.053
509.91	0.050
510.36	0.051
510.82	0.052
511.27	0.050
511.73	0.050
512.19	0.049
512.64	0.050
513.10	0.050
513.55	0.052
514.01	0.050
514.46	0.052
514.92	0.049
515.37	0.051
515.83	0.051
516.28	0.051
516.73	0.050
517.19	0.050
517.64	0.048
518.10	0.049
518.55	0.050
519.01	0.050
519.46	0.050
519.92	0.052
520.37	0.048
520.83	0.050
521.28	0.051
521.74	0.051
522.19	0.051
522.65	0.051
523.10	0.051
523.55	0.050
524.01	0.052
524.46	0.051
524.92	0.052
525.37	0.051
525.83	0.051
526.28	0.051
526.73	0.051
527.19	0.054
527.64	0.054
528.10	0.052
528.55	0.053
529.01	0.054
529.46	0.053
529.91	0.055
530.37	0.054
530.82	0.054
531.28	0.053
531.73	0.052
532.18	0.053
532.64	0.056
533.09	0.054
533.54	0.054
534.00	0.055
534.45	0.057
534.91	0.057
535.36	0.057
535.81	0.058
536.27	0.057
536.72	0.059
537.17	0.057
537.63	0.058
538.08	0.057
538.54	0.061
538.99	0.060
539.44	0.061
539.90	0.060
540.35	0.061
540.80	0.060
541.26	0.060
541.71	0.060
542.16	0.063
542.62	0.065
543.07	0.064
543.52	0.065
543.98	0.067
544.43	0.065
544.88	0.065
545.34	0.067
545.79	0.067
546.24	0.066
546.69	0.071
547.15	0.069
547.60	0.070
548.05	0.072
548.51	0.071
548.96	0.072
549.41	0.073
549.86	0.073
550.32	0.076
550.77	0.077
551.22	0.075
551.68	0.075
552.13	0.076
552.58	0.077
553.03	0.079
553.49	0.080
553.94	0.079
554.39	0.080
554.84	0.084
555.30	0.083
555.75	0.084
556.20	0.084
556.65	0.085
557.11	0.088
557.56	0.087
558.01	0.089
558.46	0.090
558.92	0.090
559.37	0.091
559.82	0.093
560.27	0.093
560.72	0.094
561.18	0.094
561.63	0.094
562.08	0.096
562.53	0.097
562.99	0.099
563.44	0.101
563.89	0.099
564.34	0.101
564.79	0.105
565.25	0.104
565.70	0.103
566.15	0.105
566.60	0.105
567.05	0.108
567.50	0.108
567.96	0.108
568.41	0.110
568.86	0.109
569.31	0.112
569.76	0.114
570.21	0.115
570.67	0.117
571.12	0.117
571.57	0.117
572.02	0.119
572.47	0.122
572.92	0.122
573.37	0.122
573.83	0.123
574.28	0.126
574.73	0.128
575.18	0.129
575.63	0.132
576.08	0.132
576.53	0.134
576.98	0.135
577.44	0.134
577.89	0.138
578.34	0.141
578.79	0.141
579.24	0.142
579.69	0.145
580.14	0.146
580.59	0.147
581.04	0.149
581.49	0.152
581.95	0.155
582.40	0.155
582.85	0.157
583.30	0.158
583.75	0.160
584.20	0.164
584.65	0.166
585.10	0.169
585.55	0.172
586.00	0.174
586.45	0.175
586.90	0.178
587.35	0.182
587.80	0.183
588.25	0.185
588.71	0.190
589.16	0.192
589.61	0.195
590.06	0.197
590.51	0.201
590.96	0.202
591.41	0.206
591.86	0.208
592.31	0.211
592.76	0.216
593.21	0.218
593.66	0.221
594.11	0.224
594.56	0.225
595.01	0.230
595.46	0.233
595.91	0.236
596.36	0.240
596.81	0.242
597.26	0.246
597.71	0.249
598.16	0.253
598.61	0.256
599.06	0.259
599.51	0.264
599.96	0.268
600.41	0.272
600.86	0.271
601.31	0.275
601.76	0.281
602.21	0.281
602.65	0.285
603.10	0.289
603.55	0.292
604.00	0.295
604.45	0.298
604.90	0.301
605.35	0.303
605.80	0.307
606.25	0.312
606.70	0.312
607.15	0.316
607.60	0.318
608.05	0.321
608.50	0.322
608.95	0.323
609.39	0.330
609.84	0.329
610.29	0.330
610.74	0.335
611.19	0.336
611.64	0.338
612.09	0.338
612.54	0.340
612.99	0.344
613.44	0.343
613.88	0.345
614.33	0.348
614.78	0.346
615.23	0.349
615.68	0.349
616.13	0.350
616.58	0.352
617.03	0.350
617.47	0.353
617.92	0.355
618.37	0.353
618.82	0.356
619.27	0.356
619.72	0.355
620.17	0.357
620.61	0.357
621.06	0.358
621.51	0.358
621.96	0.361
622.41	0.362
622.86	0.361
623.30	0.359
623.75	0.362
624.20	0.363
624.65	0.363
625.10	0.365
625.54	0.368
625.99	0.367
626.44	0.369
626.89	0.369
627.34	0.371
627.78	0.372
628.23	0.372
628.68	0.376
629.13	0.377
629.58	0.377
630.02	0.382
630.47	0.384
630.92	0.383
631.37	0.384
631.81	0.389
632.26	0.391
632.71	0.395
633.16	0.394
633.61	0.398
634.05	0.398
634.50	0.404
634.95	0.407
635.40	0.411
635.84	0.416
636.29	0.416
636.74	0.423
637.18	0.427
637.63	0.430
638.08	0.433
638.53	0.436
638.97	0.439
639.42	0.445
639.87	0.452
640.32	0.454
640.76	0.460
641.21	0.463
641.66	0.469
642.10	0.475
642.55	0.478
643.00	0.483
643.44	0.488
643.89	0.491
644.34	0.497
644.79	0.502
645.23	0.510
645.68	0.515
646.13	0.520
646.57	0.530
647.02	0.529
647.47	0.539
647.91	0.541
648.36	0.549
648.81	0.557
649.25	0.558
649.70	0.561
650.15	0.570
650.59	0.574
651.04	0.582
651.48	0.588
651.93	0.594
652.38	0.596
652.82	0.603
653.27	0.608
653.72	0.615
654.16	0.615
654.61	0.624
655.06	0.624
655.50	0.627
655.95	0.635
656.39	0.639
656.84	0.641
657.29	0.651
657.73	0.651
658.18	0.656
658.62	0.666
659.07	0.666
659.52	0.671
659.96	0.676
660.41	0.679
660.85	0.682
661.30	0.690
661.74	0.687
662.19	0.693
662.64	0.697
663.08	0.695
663.53	0.700
663.97	0.697
664.42	0.702
664.86	0.706
665.31	0.705
665.75	0.707
666.20	0.708
666.65	0.707
667.09	0.706
667.54	0.708
667.98	0.704
668.43	0.703
668.87	0.698
669.32	0.695
669.76	0.695
670.21	0.687
670.65	0.681
671.10	0.682
671.54	0.675
671.99	0.662
672.43	0.659
672.88	0.647
673.32	0.640
673.77	0.631
674.21	0.621
674.66	0.616
675.10	0.604
675.55	0.591
675.99	0.586
676.44	0.570
676.88	0.556
677.33	0.544
677.77	0.531
678.22	0.517
678.66	0.504
679.11	0.492
679.55	0.479
679.99	0.467
680.44	0.452
680.88	0.439
681.33	0.424
681.77	0.409
682.22	0.401
682.66	0.383
683.11	0.371
683.55	0.357
683.99	0.345
684.44	0.332
684.88	0.321
685.33	0.309
685.77	0.298
686.21	0.288
686.66	0.275
687.10	0.264
687.55	0.252
687.99	0.245
688.44	0.235
688.88	0.226
689.32	0.217
689.77	0.206
690.21	0.196
690.65	0.189
691.10	0.183
691.54	0.173
691.99	0.165
692.43	0.158
692.87	0.151
693.32	0.148
693.76	0.141
694.20	0.137
694.65	0.129
695.09	0.127
695.53	0.119
695.98	0.113
696.42	0.111
696.86	0.105
697.31	0.101
697.75	0.097
698.19	0.093
698.64	0.090
699.08	0.086
699.52	0.083
699.97	0.081
700.41	0.079
700.85	0.076
701.30	0.072
701.74	0.070
702.18	0.067
702.63	0.066
703.07	0.064
703.51	0.064
703.96	0.059
704.40	0.058
704.84	0.058
705.28	0.055
705.73	0.052
706.17	0.051
706.61	0.049
707.06	0.047
707.50	0.047
707.94	0.045
708.38	0.044
708.83	0.045
709.27	0.043
709.71	0.040
710.15	0.040
710.60	0.039
711.04	0.039
711.48	0.041
711.92	0.040
712.37	0.036
712.81	0.040
713.25	0.035
713.69	0.033
714.13	0.035
714.58	0.035
715.02	0.034
715.46	0.032
715.90	0.032
716.35	0.028
716.79	0.033
717.23	0.033
717.67	0.030
718.11	0.032
718.56	0.035
719.00	0.033
719.44	0.033
719.88	0.032
720.32	0.029
720.76	0.032
721.21	0.030
721.65	0.029
722.09	0.031
722.53	0.031
722.97	0.029
723.41	0.028
723.86	0.030
724.30	0.030
724.74	0.031
725.18	0.029
725.62	0.029
726.06	0.031
726.50	0.026
726.95	0.029
727.39	0.030
727.83	0.028
728.27	0.029
728.71	0.028
729.15	0.030
729.59	0.031
730.03	0.025
730.48	0.031
730.92	0.028
731.36	0.030
731.80	0.030
732.24	0.031
732.68	0.028
733.12	0.028
733.56	0.027
734.00	0.029
734.44	0.030
734.89	0.030
735.33	0.031
735.77	0.031
736.21	0.029
736.65	0.028
737.09	0.034
737.53	0.031
737.97	0.032
738.41	0.032
738.85	0.033
739.29	0.032
739.73	0.031
740.17	0.032
740.61	0.032
741.05	0.034
741.49	0.031
741.93	0.033
742.37	0.030
742.81	0.032
743.26	0.032
743.70	0.032
744.14	0.033
744.58	0.031
745.02	0.031
745.46	0.033
745.90	0.030
746.34	0.031
746.78	0.032
747.22	0.031
747.66	0.032
748.10	0.032
748.54	0.032
748.98	0.027
749.42	0.031
749.86	0.033
750.29	0.031
750.73	0.029
751.17	0.028
751.61	0.029
752.05	0.032
752.49	0.030
752.93	0.030
753.37	0.029
753.81	0.027
754.25	0.030
754.69	0.029
755.13	0.029
755.57	0.031
756.01	0.031
756.45	0.032
756.89	0.029
757.33	0.030
757.77	0.030
758.21	0.029
758.64	0.030
759.08	0.026
759.52	0.030
759.96	0.032
760.40	0.033
760.84	0.030
761.28	0.029
761.72	0.032
762.16	0.032
762.60	0.029
763.03	0.030
763.47	0.031
763.91	0.031
764.35	0.030
764.79	0.030
765.23	0.028
765.67	0.031
766.11	0.029
766.54	0.028
766.98	0.033
767.42	0.033
767.86	0.027
768.30	0.031
768.74	0.032
769.17	0.034
769.61	0.032
770.05	0.032
770.49	0.033
770.93	0.032
771.37	0.029
771.80	0.030
772.24	0.030
772.68	0.030
773.12	0.032
773.56	0.031
774.00	0.030
774.43	0.027
774.87	0.029
775.31	0.029
775.75	0.030
776.19	0.030
776.62	0.029
777.06	0.033
777.50	0.030
777.94	0.028
778.37	0.029
778.81	0.031
779.25	0.028
779.69	0.031
780.13	0.032
780.56	0.027
781.00	0.030
781.44	0.032
781.88	0.032
782.31	0.029
782.75	0.030
783.19	0.032
783.63	0.028
784.06	0.027
784.50	0.033
784.94	0.030
785.37	0.030
785.81	0.030
786.25	0.031
786.69	0.028
787.12	0.027
787.56	0.028
788.00	0.032
788.43	0.032
788.87	0.029
789.31	0.031
789.75	0.029
790.18	0.027
790.62	0.029
791.06	0.031
791.49	0.029
791.93	0.026
792.37	0.032
792.80	0.030
793.24	0.029
793.68	0.030
794.11	0.032
794.55	0.033
794.99	0.032
795.42	0.031
795.86	0.032
796.30	0.030
796.73	0.028
797.17	0.030
797.61	0.031
798.04	0.031
798.48	0.030
798.91	0.031
799.35	0.030
799.79	0.032
800.22	0.030
800.66	0.028
801.10	0.029
801.53	0.030
801.97	0.033
802.40	0.035
802.84	0.030
803.28	0.028
803.71	0.030
804.15	0.030
804.58	0.029
805.02	0.032
805.46	0.031
805.89	0.032
806.33	0.031
806.76	0.029
807.20	0.032
807.63	0.030
808.07	0.032
808.51	0.031
808.94	0.026
809.38	0.031
809.81	0.032
810.25	0.034
810.68	0.034
811.12	0.030
811.55	0.034
811.99	0.031
812.42	0.034
812.86	0.030
813.29	0.027
813.73	0.032
814.17	0.031
814.60	0.027
815.04	0.029
815.47	0.030
815.91	0.030
816.34	0.032
816.78	0.031
817.21	0.035
817.65	0.033
818.08	0.029
818.52	0.036
818.95	0.032
819.39	0.034
819.82	0.031
820.25	0.032
820.69	0.030
821.12	0.032
821.56	0.033
821.99	0.032
822.43	0.028
822.86	0.034
823.30	0.031
823.73	0.032
824.17	0.033
824.60	0.033
825.04	0.038
825.47	0.036
825.90	0.033
826.34	0.035
826.77	0.030
827.21	0.038
827.64	0.038
828.08	0.033
828.51	0.033
828.94	0.036
829.38	0.034
829.81	0.039
830.25	0.038
830.68	0.040
831.11	0.035
831.55	0.036
831.98	0.040
832.42	0.038
832.85	0.038
833.28	0.040
833.72	0.040
834.15	0.039
834.58	0.035
835.02	0.041
835.45	0.040
835.88	0.039
836.32	0.044
836.75	0.040
837.19	0.043
837.62	0.040
838.05	0.040
838.49	0.042
838.92	0.040
839.35	0.042
839.79	0.037
840.22	0.045
840.65	0.039
841.09	0.043
841.52	0.038
841.95	0.038
842.39	0.041
842.82	0.039
843.25	0.041
843.68	0.040
844.12	0.042
844.55	0.040
844.98	0.042
845.42	0.041
845.85	0.039
846.28	0.044
846.71	0.040
847.15	0.043
847.58	0.042
848.01	0.045
848.45	0.043
848.88	0.043
849.31	0.043
849.74	0.042
850.18	0.043
850.61	0.045
851.04	0.043
851.47	0.045
851.91	0.045
852.34	0.045
852.77	0.045
853.20	0.042
853.64	0.045
854.07	0.047
854.50	0.045
854.93	0.046
855.36	0.044
855.80	0.043
856.23	0.045
856.66	0.051
857.09	0.042
857.52	0.045
857.96	0.036
858.39	0.046
858.82	0.042
859.25	0.048
859.68	0.042
860.12	0.042
860.55	0.041
860.98	0.044
861.41	0.038
861.84	0.047
862.27	0.043
862.71	0.047
863.14	0.043
863.57	0.049
864.00	0.049
864.43	0.051
864.86	0.048
865.30	0.051
865.73	0.050
866.16	0.045
866.59	0.050
867.02	0.046
867.45	0.045
867.88	0.045
868.31	0.050
868.75	0.052
869.18	0.050
869.61	0.050
870.04	0.051
870.47	0.053
870.90	0.052
871.33	0.050
871.76	0.055
872.19	0.052
872.62	0.049
873.06	0.047
873.49	0.049
873.92	0.048
874.35	0.051
874.78	0.052
875.21	0.045
875.64	0.049
876.07	0.055
876.50	0.052
876.93	0.050
877.36	0.053
877.79	0.052
878.22	0.046
878.65	0.050
879.08	0.050
879.51	0.053
879.94	0.051
880.37	0.053
880.80	0.060
881.23	0.050
881.67	0.054
882.10	0.055
882.53	0.050
882.96	0.057
883.39	0.056
883.82	0.056
884.25	0.052
884.68	0.051
885.11	0.058
885.54	0.053
885.97	0.052
886.39	0.049
886.82	0.054
887.25	0.057
887.68	0.053
888.11	0.053
888.54	0.053
888.97	0.058
889.40	0.058
889.83	0.052
890.26	0.058
890.69	0.056
891.12	0.053
891.55	0.059
891.98	0.055
892.41	0.052
892.84	0.053
893.27	0.059
893.70	0.056
894.13	0.056
894.56	0.058
894.98	0.062
895.41	0.061
895.84	0.058
896.27	0.060
896.70	0.062
897.13	0.061
897.56	0.059
897.99	0.063
898.42	0.056
898.85	0.058
899.27	0.056
899.70	0.062
900.13	0.058
900.56	0.060
900.99	0.059
901.42	0.062
901.85	0.060
902.28	0.057
902.70	0.063
903.13	0.062
903.56	0.061
903.99	0.057
904.42	0.061
904.85	0.063
905.27	0.061
905.70	0.062
906.13	0.065
906.56	0.059
906.99	0.063
907.42	0.062
907.84	0.060
908.27	0.061
908.70	0.066
909.13	0.064
909.56	0.064
909.98	0.065
910.41	0.063
910.84	0.062
911.27	0.064
911.70	0.061
912.12	0.061
912.55	0.059
912.98	0.059
913.41	0.061
913.84	0.062
914.26	0.059
914.69	0.061
915.12	0.065
915.55	0.060
915.97	0.060
916.40	0.064
916.83	0.062
917.26	0.060
917.68	0.060
918.11	0.064
918.54	0.063
918.97	0.062
919.39	0.060
919.82	0.065
920.25	0.061
920.67	0.062
921.10	0.068
921.53	0.064
921.96	0.067
922.38	0.066
922.81	0.062
923.24	0.068
923.66	0.064
924.09	0.067
924.52	0.067
924.94	0.067
925.37	0.068
925.80	0.071
926.22	0.068
926.65	0.068
927.08	0.070
927.50	0.072
927.93	0.073
928.36	0.071
928.78	0.070
929.21	0.071
929.64	0.078
930.06	0.077
930.49	0.081
930.92	0.080
931.34	0.079
931.77	0.081
932.20	0.080
932.62	0.078
933.05	0.080
933.47	0.083
933.90	0.083
934.33	0.080
934.75	0.084
935.18	0.084
935.61	0.087
936.03	0.090
936.46	0.089
936.88	0.092
937.31	0.091
937.73	0.096
938.16	0.088
938.59	0.098
939.01	0.097
939.44	0.101
939.86	0.104
940.29	0.106
940.71	0.101
941.14	0.109
941.57	0.109
941.99	0.108
942.42	0.108
942.84	0.113
943.27	0.116
943.69	0.116
944.12	0.112
944.54	0.124
944.97	0.120
945.39	0.116
945.82	0.125
946.24	0.126
946.67	0.126
947.09	0.133
947.52	0.128
947.94	0.133
948.37	0.134
948.79	0.138
949.22	0.144
949.64	0.140
950.07	0.146
950.49	0.151
950.92	0.148
951.34	0.150
951.77	0.152
952.19	0.156
952.62	0.162
953.04	0.162
953.47	0.168
953.89	0.167
954.32	0.173
954.74	0.173
955.17	0.175
955.59	0.182
956.01	0.180
956.44	0.185
956.86	0.189
957.29	0.191
957.71	0.194
958.14	0.199
958.56	0.199
958.98	0.200
959.41	0.200
959.83	0.201
960.26	0.202
960.68	0.206
961.10	0.203
961.53	0.209
961.95	0.214
962.38	0.211
962.80	0.210
963.22	0.219
963.65	0.212
964.07	0.212
964.50	0.212
964.92	0.219
965.34	0.220
965.77	0.215
966.19	0.221
966.61	0.224
967.04	0.225
967.46	0.218
967.88	0.224
968.31	0.218
968.73	0.217
969.15	0.222
969.58	0.218
970.00	0.224
970.42	0.218
970.85	0.223
971.27	0.221
971.69	0.219
972.12	0.224
972.54	0.228
972.96	0.223
973.39	0.226
973.81	0.230
974.23	0.220
974.65	0.217
975.08	0.222
975.50	0.230
975.92	0.227
976.35	0.226
976.77	0.224
977.19	0.223
977.61	0.222
978.04	0.223
978.46	0.226
978.88	0.227
979.30	0.224
979.73	0.228
980.15	0.230
980.57	0.226
980.99	0.225
981.42	0.230
981.84	0.226
982.26	0.226
982.68	0.227
983.11	0.228
983.53	0.226
983.95	0.232
984.37	0.228
984.79	0.228
985.22	0.227
985.64	0.223
986.06	0.229
986.48	0.228
986.90	0.225
987.33	0.220
987.75	0.221
988.17	0.220
988.59	0.219
989.01	0.215
989.43	0.221
989.86	0.218
990.28	0.226
990.70	0.225
991.12	0.223
991.54	0.224
991.96	0.217
992.39	0.223
992.81	0.213
993.23	0.219
993.65	0.214
994.07	0.218
994.49	0.211
994.91	0.216
995.34	0.207
995.76	0.214
996.18	0.217
996.60	0.208
997.02	0.213
997.44	0.204
997.86	0.215
998.28	0.208
998.70	0.213
999.12	0.206
999.55	0.207
999.97	0.203
1000.39	0.202
1000.81	0.202
1001.23	0.199
1001.65	0.197
1002.07	0.200
1002.49	0.200
1002.91	0.202
1003.33	0.194
1003.75	0.196
1004.17	0.194
1004.59	0.198
1005.01	0.195
1005.43	0.192
1005.85	0.195
1006.28	0.182
1006.70	0.190
1007.12	0.191
1007.54	0.193
1007.96	0.190
1008.38	0.185
1008.80	0.186
1009.22	0.184
1009.64	0.182
1010.06	0.182
1010.48	0.189
1010.90	0.187
1011.32	0.172
1011.74	0.180
1012.16	0.178
1012.58	0.181
1013.00	0.171
1013.42	0.173
1013.84	0.176
1014.26	0.171
1014.67	0.172
1015.09	0.177
1015.51	0.173
1015.93	0.169
1016.35	0.170
1016.77	0.177
1017.19	0.161
1017.61	0.160
1018.03	0.171
1018.45	0.164
1018.87	0.164
1019.29	0.169
1019.71	0.162
1020.13	0.158
1020.55	0.161
1020.97	0.146
1021.38	0.158
1021.80	0.149
1022.22	0.147
1022.64	0.154
1023.06	0.151
1023.48	0.164
1023.90	0.142
1024.32	0.146
1024.74	0.161
1025.15	0.153
1025.57	0.149
1025.99	0.158
1026.41	0.155
1026.83	0.151
1027.25	0.148
1027.67	0.151
1028.08	0.142
1028.50	0.140
1028.92	0.151
1029.34	0.136
1029.76	0.144
1030.18	0.144
1030.60	0.147
1031.01	0.139
1031.43	0.145
1031.85	0.141
1032.27	0.138
1032.69	0.132
1033.10	0.143
1033.52	0.132
1033.94	0.123
1034.36	0.126
1034.78	0.134
1035.19	0.136
1035.61	0.138
1036.03	0.135
1036.45	0.124
1036.87	0.140
1037.28	0.132
1037.70	0.137
1038.12	0.128
1038.54	0.118
1038.95	0.112
1039.37	0.124
1039.79	0.120
1040.21	0.123
1040.62	0.129
1041.04	0.132
1041.46	0.110
1041.88	0.119
1042.29	0.109
1042.71	0.137
1043.13	0.123
1043.55	0.112
1043.96	0.124
1044.38	0.122
1044.80	0.123
1045.21	0.101
1045.63	0.114
1046.05	0.092
1046.47	0.107
1046.88	0.121
1047.30	0.115
1047.72	0.090
1048.13	0.101
1048.55	0.111
1048.97	0.113
1049.38	0.107
1049.80	0.115
1050.22	0.134
1050.63	0.117
1051.05	0.112
1051.47	0.108
1051.88	0.109
1052.30	0.087
1052.72	0.095
1053.13	0.105
1053.55	0.106
1053.97	0.071
1054.38	0.088
1054.80	0.117
1055.21	0.108
1055.63	0.100
1056.05	0.107
1056.46	0.122
1056.88	0.133
1057.29	0.123
1057.71	0.150
1058.13	0.108
1058.54	0.120
1058.96	0.109
1059.37	0.118
1059.79	0.111
1060.21	0.111
1060.62	0.132
1061.04	0.109
1061.45	0.102
1061.87	0.104
1062.28	0.118
1062.70	0.111
1063.12	0.080
1063.53	0.102
1063.95	0.138
1064.36	0.110
1064.78	0.124
1065.19	0.172
1065.61	0.149
1066.02	0.110
1066.44	0.104
1066.85	0.109
1067.27	0.177
1067.68	0.122
1068.10	0.085
1068.51	0.132
1068.93	0.131
1069.35	0.204
1069.76	0.113
1070.17	0.146
1070.59	0.116
1071.00	0.132
1071.42	0.129
1071.83	0.127
1072.25	0.124
1072.66	0.152
1073.08	0.133
1073.49	0.140
1073.91	0.112
1074.32	0.255
1074.74	0.121
1075.15	0.133
1075.57	0.102
1075.98	0.228
1076.40	0.139
1076.81	0.099
1077.22	0.110
1077.64	0.089
1078.05	0.277
1078.47	0.182
1078.88	0.336
1079.30	0.214
1079.71	0.363
1080.12	0.326
1080.54	0.320
1080.95	0.169
1081.37	0.261
1081.78	0.149
1082.19	0.307
1082.61	0.290
1083.02	0.355
1083.44	0.420
1083.85	0.090
1084.26	0.527
1084.68	0.352
1085.09	0.341
1085.50	0.301
1085.92	0.330
1086.33	1.146
1086.74	0.136
1087.16	0.539
1087.57	0.336
1087.98	0.163
1088.40	0.225
1088.81	0.495
1089.22	-0.000
1089.64	0.375
1090.05	0.567
1090.46	1.828
1090.88	-0.000
1091.29	0.238
1091.70	-0.000
1092.12	0.027
1092.53	1.487
1092.94	0.841
1093.36	0.419
1093.77	1.301
1094.18	0.332
1094.59	0.563
1095.01	1.522
1095.42	0.298
1095.83	0.328
1096.25	0.747
1096.66	-0.000
1097.07	1.119
1097.48	0.559
1097.90	1.032
1098.31	0.565
1098.72	1.222
1099.13	0.390
>>>>>End Processed Spectral Data<<<<<
