SpectraSuite Data File
++++++++++++++++++++++++++++++++++++
Date: Sun Apr 24 17:50:20 CEST 2016
User: spectrasuite
Dark Spectrum Present: Yes
Reference Spectrum Present: Yes
Number of Sampled Component Spectra: 1
Spectrometers: HR+C0708
Integration Time (usec): 1000 (HR+C0708)
Spectra Averaged: 10 (HR+C0708)
Boxcar Smoothing: 0 (HR+C0708)
Correct for Electrical Dark: No (HR+C0708)
Strobe/Lamp Enabled: No (HR+C0708)
Correct for Detector Non-linearity: No (HR+C0708)
Correct for Stray Light: No (HR+C0708)
Number of Pixels in Processed Spectrum: 2048
>>>>>Begin Processed Spectral Data<<<<<
188.76	-0.000
189.23	-0.000
189.70	-0.000
190.17	-0.000
190.64	-0.000
191.12	-0.000
191.59	-0.000
192.06	-0.000
192.53	-0.000
193.01	-0.000
193.48	-0.000
193.95	-0.000
194.42	-0.000
194.90	-0.000
195.37	-0.000
195.84	-0.000
196.31	-0.000
196.78	-0.000
197.26	-0.000
197.73	-0.000
198.20	-0.000
198.67	-0.000
199.14	-0.000
199.62	-0.000
200.09	-0.000
200.56	-0.000
201.03	-0.000
201.50	1.155
201.97	-0.000
202.45	-0.000
202.92	-0.000
203.39	1.892
203.86	-0.000
204.33	-0.000
204.80	-0.000
205.28	1.640
205.75	-0.000
206.22	-0.000
206.69	1.127
207.16	-0.000
207.63	-0.000
208.11	1.225
208.58	1.110
209.05	-0.000
209.52	2.712
209.99	1.131
210.46	-0.000
210.93	-0.000
211.41	-0.000
211.88	-0.000
212.35	-0.000
212.82	-0.000
213.29	1.029
213.76	-0.000
214.23	-0.000
214.70	-0.000
215.18	-0.000
215.65	-0.000
216.12	1.835
216.59	-0.000
217.06	-0.000
217.53	-0.000
218.00	-0.000
218.47	-0.000
218.94	-0.000
219.41	-0.000
219.89	-0.000
220.36	1.239
220.83	-0.000
221.30	-0.000
221.77	1.479
222.24	-0.000
222.71	-0.000
223.18	-0.000
223.65	1.784
224.12	-0.000
224.59	-0.000
225.06	-0.000
225.54	1.584
226.01	1.534
226.48	-0.000
226.95	-0.000
227.42	-0.000
227.89	-0.000
228.36	-0.000
228.83	-0.000
229.30	2.357
229.77	-0.000
230.24	1.865
230.71	-0.000
231.18	-0.000
231.65	-0.000
232.12	1.865
232.59	-0.000
233.06	2.962
233.53	2.829
234.00	2.061
234.47	3.151
234.94	-0.000
235.41	2.496
235.88	-0.000
236.35	-0.000
236.82	-0.000
237.29	3.052
237.76	-0.000
238.23	3.149
238.70	2.735
239.17	2.329
239.64	-0.000
240.11	-0.000
240.58	-0.000
241.05	-0.000
241.52	-0.000
241.99	-0.000
242.46	3.151
242.93	-0.000
243.40	2.970
243.87	2.521
244.34	2.755
244.81	-0.000
245.28	-0.000
245.75	2.797
246.22	-0.000
246.69	-0.000
247.16	3.325
247.63	3.143
248.10	-0.000
248.57	-0.000
249.04	3.137
249.51	4.705
249.98	-0.000
250.45	-0.000
250.92	3.328
251.39	-0.000
251.85	-0.000
252.32	-0.000
252.79	3.930
253.26	-0.000
253.73	-0.000
254.20	2.920
254.67	2.899
255.14	-0.000
255.61	3.141
256.08	3.304
256.55	-0.000
257.02	2.795
257.49	2.823
257.95	2.763
258.42	2.859
258.89	2.718
259.36	2.574
259.83	2.645
260.30	2.745
260.77	2.641
261.24	2.494
261.71	2.658
262.17	2.622
262.64	2.350
263.11	2.525
263.58	2.480
264.05	2.445
264.52	2.291
264.99	2.345
265.46	2.335
265.92	2.328
266.39	2.245
266.86	2.371
267.33	2.278
267.80	2.175
268.27	2.228
268.74	2.223
269.20	2.227
269.67	2.179
270.14	2.107
270.61	2.135
271.08	2.082
271.55	2.050
272.01	2.052
272.48	2.079
272.95	2.030
273.42	2.025
273.89	2.033
274.36	1.996
274.82	1.922
275.29	1.953
275.76	1.909
276.23	1.917
276.70	1.936
277.16	1.910
277.63	1.871
278.10	1.852
278.57	1.874
279.04	1.854
279.50	1.864
279.97	1.854
280.44	1.823
280.91	1.779
281.38	1.771
281.84	1.792
282.31	1.786
282.78	1.779
283.25	1.743
283.72	1.739
284.18	1.747
284.65	1.728
285.12	1.696
285.59	1.700
286.05	1.703
286.52	1.671
286.99	1.673
287.46	1.671
287.92	1.651
288.39	1.627
288.86	1.653
289.33	1.635
289.79	1.614
290.26	1.615
290.73	1.599
291.20	1.604
291.66	1.584
292.13	1.585
292.60	1.566
293.07	1.544
293.53	1.539
294.00	1.549
294.47	1.540
294.93	1.523
295.40	1.520
295.87	1.517
296.34	1.505
296.80	1.480
297.27	1.487
297.74	1.471
298.20	1.471
298.67	1.450
299.14	1.455
299.60	1.441
300.07	1.430
300.54	1.443
301.01	1.418
301.47	1.409
301.94	1.399
302.41	1.403
302.87	1.403
303.34	1.396
303.81	1.373
304.27	1.375
304.74	1.364
305.21	1.364
305.67	1.361
306.14	1.339
306.61	1.341
307.07	1.323
307.54	1.316
308.01	1.323
308.47	1.310
308.94	1.315
309.40	1.313
309.87	1.289
310.34	1.285
310.80	1.293
311.27	1.281
311.74	1.273
312.20	1.274
312.67	1.265
313.13	1.252
313.60	1.247
314.07	1.250
314.53	1.234
315.00	1.219
315.47	1.235
315.93	1.220
316.40	1.209
316.86	1.210
317.33	1.205
317.80	1.206
318.26	1.196
318.73	1.189
319.19	1.191
319.66	1.180
320.13	1.171
320.59	1.172
321.06	1.165
321.52	1.163
321.99	1.151
322.45	1.151
322.92	1.140
323.39	1.140
323.85	1.137
324.32	1.146
324.78	1.131
325.25	1.125
325.71	1.121
326.18	1.114
326.64	1.114
327.11	1.113
327.58	1.102
328.04	1.094
328.51	1.098
328.97	1.089
329.44	1.086
329.90	1.078
330.37	1.075
330.83	1.071
331.30	1.086
331.76	1.072
332.23	1.055
332.69	1.061
333.16	1.048
333.62	1.053
334.09	1.043
334.56	1.038
335.02	1.031
335.49	1.032
335.95	1.026
336.42	1.021
336.88	1.010
337.35	1.008
337.81	1.009
338.28	1.004
338.74	0.999
339.20	0.995
339.67	0.987
340.13	0.991
340.60	0.972
341.06	0.978
341.53	0.966
341.99	0.970
342.46	0.960
342.92	0.953
343.39	0.948
343.85	0.943
344.32	0.936
344.78	0.931
345.25	0.930
345.71	0.927
346.17	0.922
346.64	0.914
347.10	0.905
347.57	0.895
348.03	0.891
348.50	0.883
348.96	0.876
349.43	0.873
349.89	0.861
350.35	0.852
350.82	0.848
351.28	0.842
351.75	0.837
352.21	0.830
352.67	0.818
353.14	0.812
353.60	0.809
354.07	0.794
354.53	0.789
355.00	0.776
355.46	0.768
355.92	0.766
356.39	0.749
356.85	0.753
357.31	0.737
357.78	0.740
358.24	0.727
358.71	0.718
359.17	0.716
359.63	0.712
360.10	0.702
360.56	0.701
361.03	0.697
361.49	0.689
361.95	0.684
362.42	0.675
362.88	0.672
363.34	0.668
363.81	0.667
364.27	0.664
364.73	0.663
365.20	0.655
365.66	0.654
366.12	0.653
366.59	0.646
367.05	0.643
367.51	0.641
367.98	0.635
368.44	0.631
368.90	0.630
369.37	0.627
369.83	0.625
370.29	0.626
370.76	0.618
371.22	0.621
371.68	0.616
372.15	0.611
372.61	0.608
373.07	0.607
373.54	0.610
374.00	0.604
374.46	0.603
374.92	0.599
375.39	0.597
375.85	0.594
376.31	0.601
376.78	0.591
377.24	0.591
377.70	0.588
378.16	0.589
378.63	0.585
379.09	0.582
379.55	0.580
380.01	0.582
380.48	0.581
380.94	0.576
381.40	0.577
381.87	0.571
382.33	0.569
382.79	0.573
383.25	0.570
383.72	0.570
384.18	0.566
384.64	0.567
385.10	0.561
385.56	0.559
386.03	0.556
386.49	0.556
386.95	0.553
387.41	0.554
387.88	0.555
388.34	0.546
388.80	0.548
389.26	0.545
389.72	0.548
390.19	0.548
390.65	0.539
391.11	0.540
391.57	0.542
392.04	0.534
392.50	0.535
392.96	0.537
393.42	0.530
393.88	0.535
394.34	0.528
394.81	0.530
395.27	0.524
395.73	0.520
396.19	0.523
396.65	0.525
397.12	0.522
397.58	0.523
398.04	0.519
398.50	0.516
398.96	0.518
399.42	0.518
399.89	0.514
400.35	0.514
400.81	0.508
401.27	0.509
401.73	0.507
402.19	0.502
402.65	0.503
403.12	0.502
403.58	0.498
404.04	0.498
404.50	0.501
404.96	0.497
405.42	0.496
405.88	0.495
406.34	0.492
406.81	0.493
407.27	0.489
407.73	0.489
408.19	0.488
408.65	0.486
409.11	0.480
409.57	0.485
410.03	0.482
410.49	0.484
410.96	0.482
411.42	0.479
411.88	0.476
412.34	0.478
412.80	0.474
413.26	0.472
413.72	0.472
414.18	0.469
414.64	0.470
415.10	0.469
415.56	0.467
416.02	0.467
416.48	0.464
416.95	0.461
417.41	0.463
417.87	0.462
418.33	0.463
418.79	0.460
419.25	0.458
419.71	0.454
420.17	0.454
420.63	0.454
421.09	0.455
421.55	0.451
422.01	0.452
422.47	0.447
422.93	0.449
423.39	0.449
423.85	0.451
424.31	0.445
424.77	0.444
425.23	0.445
425.69	0.445
426.15	0.441
426.61	0.444
427.07	0.441
427.53	0.436
427.99	0.433
428.45	0.434
428.91	0.436
429.37	0.435
429.83	0.432
430.29	0.429
430.75	0.434
431.21	0.433
431.67	0.431
432.13	0.433
432.59	0.422
433.05	0.427
433.51	0.423
433.97	0.424
434.43	0.425
434.89	0.426
435.35	0.419
435.81	0.419
436.27	0.421
436.73	0.418
437.19	0.416
437.65	0.417
438.11	0.415
438.57	0.412
439.03	0.412
439.48	0.411
439.94	0.413
440.40	0.408
440.86	0.413
441.32	0.408
441.78	0.410
442.24	0.408
442.70	0.405
443.16	0.404
443.62	0.399
444.08	0.400
444.54	0.403
444.99	0.399
445.45	0.399
445.91	0.396
446.37	0.398
446.83	0.397
447.29	0.394
447.75	0.393
448.21	0.396
448.67	0.395
449.12	0.389
449.58	0.391
450.04	0.388
450.50	0.394
450.96	0.390
451.42	0.384
451.88	0.378
452.34	0.387
452.79	0.388
453.25	0.388
453.71	0.381
454.17	0.381
454.63	0.384
455.09	0.382
455.55	0.380
456.00	0.380
456.46	0.381
456.92	0.375
457.38	0.378
457.84	0.376
458.30	0.371
458.75	0.376
459.21	0.370
459.67	0.371
460.13	0.371
460.59	0.370
461.04	0.369
461.50	0.369
461.96	0.371
462.42	0.368
462.88	0.366
463.33	0.367
463.79	0.362
464.25	0.365
464.71	0.364
465.17	0.363
465.62	0.359
466.08	0.361
466.54	0.362
467.00	0.360
467.46	0.361
467.91	0.359
468.37	0.359
468.83	0.357
469.29	0.355
469.74	0.359
470.20	0.356
470.66	0.354
471.12	0.349
471.57	0.353
472.03	0.351
472.49	0.352
472.95	0.351
473.40	0.349
473.86	0.345
474.32	0.348
474.78	0.347
475.23	0.345
475.69	0.347
476.15	0.345
476.60	0.346
477.06	0.344
477.52	0.342
477.98	0.341
478.43	0.343
478.89	0.341
479.35	0.338
479.80	0.341
480.26	0.341
480.72	0.338
481.18	0.335
481.63	0.336
482.09	0.337
482.55	0.337
483.00	0.336
483.46	0.334
483.92	0.333
484.37	0.335
484.83	0.329
485.29	0.332
485.74	0.329
486.20	0.331
486.66	0.330
487.11	0.330
487.57	0.326
488.03	0.329
488.48	0.325
488.94	0.327
489.40	0.325
489.85	0.328
490.31	0.326
490.77	0.325
491.22	0.324
491.68	0.323
492.13	0.321
492.59	0.320
493.05	0.320
493.50	0.322
493.96	0.319
494.42	0.318
494.87	0.318
495.33	0.317
495.78	0.319
496.24	0.318
496.70	0.315
497.15	0.314
497.61	0.315
498.06	0.313
498.52	0.313
498.98	0.312
499.43	0.314
499.89	0.311
500.34	0.312
500.80	0.311
501.25	0.310
501.71	0.306
502.17	0.308
502.62	0.310
503.08	0.308
503.53	0.306
503.99	0.305
504.44	0.306
504.90	0.304
505.36	0.304
505.81	0.304
506.27	0.304
506.72	0.304
507.18	0.304
507.63	0.302
508.09	0.303
508.54	0.301
509.00	0.301
509.45	0.303
509.91	0.299
510.36	0.300
510.82	0.298
511.27	0.297
511.73	0.298
512.19	0.295
512.64	0.295
513.10	0.295
513.55	0.295
514.01	0.293
514.46	0.293
514.92	0.292
515.37	0.291
515.83	0.292
516.28	0.290
516.73	0.291
517.19	0.291
517.64	0.290
518.10	0.290
518.55	0.288
519.01	0.290
519.46	0.288
519.92	0.285
520.37	0.283
520.83	0.285
521.28	0.287
521.74	0.285
522.19	0.286
522.65	0.284
523.10	0.284
523.55	0.284
524.01	0.284
524.46	0.282
524.92	0.278
525.37	0.283
525.83	0.281
526.28	0.280
526.73	0.280
527.19	0.282
527.64	0.280
528.10	0.276
528.55	0.279
529.01	0.280
529.46	0.277
529.91	0.276
530.37	0.275
530.82	0.275
531.28	0.274
531.73	0.273
532.18	0.274
532.64	0.273
533.09	0.274
533.54	0.273
534.00	0.273
534.45	0.275
534.91	0.271
535.36	0.271
535.81	0.274
536.27	0.269
536.72	0.272
537.17	0.268
537.63	0.270
538.08	0.269
538.54	0.271
538.99	0.269
539.44	0.269
539.90	0.266
540.35	0.267
540.80	0.266
541.26	0.266
541.71	0.267
542.16	0.265
542.62	0.263
543.07	0.265
543.52	0.265
543.98	0.265
544.43	0.265
544.88	0.262
545.34	0.265
545.79	0.262
546.24	0.260
546.69	0.263
547.15	0.262
547.60	0.261
548.05	0.262
548.51	0.259
548.96	0.260
549.41	0.261
549.86	0.259
550.32	0.262
550.77	0.261
551.22	0.260
551.68	0.257
552.13	0.256
552.58	0.256
553.03	0.258
553.49	0.258
553.94	0.254
554.39	0.255
554.84	0.257
555.30	0.255
555.75	0.255
556.20	0.256
556.65	0.254
557.11	0.256
557.56	0.254
558.01	0.257
558.46	0.254
558.92	0.254
559.37	0.252
559.82	0.252
560.27	0.253
560.72	0.252
561.18	0.249
561.63	0.252
562.08	0.250
562.53	0.253
562.99	0.252
563.44	0.251
563.89	0.248
564.34	0.250
564.79	0.251
565.25	0.251
565.70	0.246
566.15	0.246
566.60	0.248
567.05	0.248
567.50	0.248
567.96	0.247
568.41	0.246
568.86	0.244
569.31	0.245
569.76	0.247
570.21	0.246
570.67	0.247
571.12	0.246
571.57	0.246
572.02	0.244
572.47	0.242
572.92	0.243
573.37	0.243
573.83	0.240
574.28	0.245
574.73	0.242
575.18	0.242
575.63	0.244
576.08	0.239
576.53	0.242
576.98	0.242
577.44	0.238
577.89	0.242
578.34	0.241
578.79	0.238
579.24	0.238
579.69	0.240
580.14	0.238
580.59	0.237
581.04	0.237
581.49	0.238
581.95	0.237
582.40	0.238
582.85	0.237
583.30	0.237
583.75	0.236
584.20	0.237
584.65	0.237
585.10	0.236
585.55	0.235
586.00	0.236
586.45	0.237
586.90	0.237
587.35	0.236
587.80	0.236
588.25	0.236
588.71	0.235
589.16	0.236
589.61	0.235
590.06	0.234
590.51	0.235
590.96	0.234
591.41	0.234
591.86	0.233
592.31	0.232
592.76	0.233
593.21	0.237
593.66	0.235
594.11	0.234
594.56	0.234
595.01	0.235
595.46	0.234
595.91	0.234
596.36	0.233
596.81	0.234
597.26	0.234
597.71	0.234
598.16	0.233
598.61	0.232
599.06	0.232
599.51	0.235
599.96	0.235
600.41	0.233
600.86	0.233
601.31	0.232
601.76	0.233
602.21	0.233
602.65	0.234
603.10	0.233
603.55	0.233
604.00	0.233
604.45	0.233
604.90	0.231
605.35	0.229
605.80	0.231
606.25	0.234
606.70	0.232
607.15	0.230
607.60	0.229
608.05	0.228
608.50	0.231
608.95	0.229
609.39	0.233
609.84	0.229
610.29	0.227
610.74	0.230
611.19	0.228
611.64	0.230
612.09	0.230
612.54	0.230
612.99	0.230
613.44	0.226
613.88	0.229
614.33	0.227
614.78	0.228
615.23	0.226
615.68	0.227
616.13	0.226
616.58	0.225
617.03	0.226
617.47	0.226
617.92	0.226
618.37	0.225
618.82	0.227
619.27	0.226
619.72	0.224
620.17	0.224
620.61	0.226
621.06	0.225
621.51	0.225
621.96	0.223
622.41	0.224
622.86	0.225
623.30	0.223
623.75	0.224
624.20	0.226
624.65	0.223
625.10	0.222
625.54	0.223
625.99	0.223
626.44	0.222
626.89	0.222
627.34	0.223
627.78	0.222
628.23	0.222
628.68	0.223
629.13	0.222
629.58	0.222
630.02	0.223
630.47	0.223
630.92	0.222
631.37	0.221
631.81	0.223
632.26	0.222
632.71	0.222
633.16	0.222
633.61	0.224
634.05	0.220
634.50	0.222
634.95	0.222
635.40	0.222
635.84	0.222
636.29	0.220
636.74	0.222
637.18	0.223
637.63	0.221
638.08	0.220
638.53	0.220
638.97	0.220
639.42	0.222
639.87	0.222
640.32	0.220
640.76	0.222
641.21	0.221
641.66	0.222
642.10	0.222
642.55	0.220
643.00	0.220
643.44	0.223
643.89	0.222
644.34	0.220
644.79	0.220
645.23	0.221
645.68	0.222
646.13	0.223
646.57	0.222
647.02	0.222
647.47	0.224
647.91	0.220
648.36	0.221
648.81	0.223
649.25	0.221
649.70	0.220
650.15	0.220
650.59	0.220
651.04	0.222
651.48	0.224
651.93	0.221
652.38	0.218
652.82	0.223
653.27	0.222
653.72	0.223
654.16	0.220
654.61	0.220
655.06	0.218
655.50	0.219
655.95	0.217
656.39	0.214
656.84	0.217
657.29	0.224
657.73	0.221
658.18	0.219
658.62	0.220
659.07	0.218
659.52	0.219
659.96	0.219
660.41	0.219
660.85	0.217
661.30	0.218
661.74	0.217
662.19	0.218
662.64	0.219
663.08	0.214
663.53	0.217
663.97	0.214
664.42	0.214
664.86	0.216
665.31	0.213
665.75	0.212
666.20	0.214
666.65	0.212
667.09	0.211
667.54	0.214
667.98	0.209
668.43	0.211
668.87	0.211
669.32	0.209
669.76	0.207
670.21	0.208
670.65	0.205
671.10	0.206
671.54	0.207
671.99	0.204
672.43	0.204
672.88	0.202
673.32	0.200
673.77	0.200
674.21	0.200
674.66	0.199
675.10	0.197
675.55	0.197
675.99	0.198
676.44	0.195
676.88	0.196
677.33	0.193
677.77	0.193
678.22	0.191
678.66	0.190
679.11	0.191
679.55	0.190
679.99	0.187
680.44	0.190
680.88	0.186
681.33	0.185
681.77	0.183
682.22	0.186
682.66	0.182
683.11	0.183
683.55	0.181
683.99	0.180
684.44	0.178
684.88	0.177
685.33	0.179
685.77	0.178
686.21	0.176
686.66	0.175
687.10	0.173
687.55	0.173
687.99	0.176
688.44	0.174
688.88	0.170
689.32	0.172
689.77	0.170
690.21	0.171
690.65	0.169
691.10	0.172
691.54	0.169
691.99	0.168
692.43	0.166
692.87	0.166
693.32	0.168
693.76	0.166
694.20	0.167
694.65	0.162
695.09	0.167
695.53	0.165
695.98	0.163
696.42	0.164
696.86	0.163
697.31	0.161
697.75	0.162
698.19	0.161
698.64	0.161
699.08	0.161
699.52	0.161
699.97	0.160
700.41	0.161
700.85	0.161
701.30	0.159
701.74	0.159
702.18	0.160
702.63	0.158
703.07	0.158
703.51	0.161
703.96	0.156
704.40	0.159
704.84	0.158
705.28	0.156
705.73	0.159
706.17	0.158
706.61	0.156
707.06	0.155
707.50	0.156
707.94	0.155
708.38	0.153
708.83	0.158
709.27	0.155
709.71	0.154
710.15	0.157
710.60	0.153
711.04	0.154
711.48	0.158
711.92	0.154
712.37	0.153
712.81	0.156
713.25	0.153
713.69	0.153
714.13	0.157
714.58	0.155
715.02	0.152
715.46	0.153
715.90	0.151
716.35	0.149
716.79	0.153
717.23	0.156
717.67	0.154
718.11	0.155
718.56	0.152
719.00	0.154
719.44	0.155
719.88	0.153
720.32	0.151
720.76	0.153
721.21	0.150
721.65	0.151
722.09	0.153
722.53	0.152
722.97	0.154
723.41	0.151
723.86	0.153
724.30	0.152
724.74	0.151
725.18	0.153
725.62	0.152
726.06	0.152
726.50	0.148
726.95	0.152
727.39	0.153
727.83	0.150
728.27	0.147
728.71	0.149
729.15	0.152
729.59	0.150
730.03	0.149
730.48	0.150
730.92	0.152
731.36	0.151
731.80	0.151
732.24	0.149
732.68	0.151
733.12	0.149
733.56	0.150
734.00	0.149
734.44	0.151
734.89	0.150
735.33	0.153
735.77	0.154
736.21	0.152
736.65	0.152
737.09	0.152
737.53	0.153
737.97	0.154
738.41	0.150
738.85	0.155
739.29	0.153
739.73	0.148
740.17	0.150
740.61	0.151
741.05	0.152
741.49	0.150
741.93	0.148
742.37	0.146
742.81	0.150
743.26	0.149
743.70	0.149
744.14	0.149
744.58	0.151
745.02	0.150
745.46	0.150
745.90	0.149
746.34	0.150
746.78	0.150
747.22	0.148
747.66	0.151
748.10	0.149
748.54	0.149
748.98	0.148
749.42	0.149
749.86	0.148
750.29	0.147
750.73	0.145
751.17	0.145
751.61	0.145
752.05	0.149
752.49	0.147
752.93	0.145
753.37	0.143
753.81	0.144
754.25	0.146
754.69	0.143
755.13	0.142
755.57	0.148
756.01	0.145
756.45	0.145
756.89	0.147
757.33	0.145
757.77	0.148
758.21	0.144
758.64	0.143
759.08	0.141
759.52	0.142
759.96	0.147
760.40	0.144
760.84	0.140
761.28	0.144
761.72	0.146
762.16	0.145
762.60	0.146
763.03	0.141
763.47	0.145
763.91	0.145
764.35	0.142
764.79	0.141
765.23	0.140
765.67	0.142
766.11	0.137
766.54	0.139
766.98	0.141
767.42	0.142
767.86	0.138
768.30	0.142
768.74	0.141
769.17	0.142
769.61	0.140
770.05	0.140
770.49	0.141
770.93	0.141
771.37	0.138
771.80	0.139
772.24	0.139
772.68	0.141
773.12	0.140
773.56	0.137
774.00	0.137
774.43	0.139
774.87	0.139
775.31	0.137
775.75	0.138
776.19	0.138
776.62	0.139
777.06	0.138
777.50	0.137
777.94	0.138
778.37	0.137
778.81	0.139
779.25	0.137
779.69	0.139
780.13	0.138
780.56	0.137
781.00	0.140
781.44	0.138
781.88	0.137
782.31	0.135
782.75	0.137
783.19	0.141
783.63	0.136
784.06	0.133
784.50	0.135
784.94	0.135
785.37	0.138
785.81	0.139
786.25	0.138
786.69	0.135
787.12	0.137
787.56	0.135
788.00	0.137
788.43	0.137
788.87	0.136
789.31	0.134
789.75	0.133
790.18	0.139
790.62	0.134
791.06	0.135
791.49	0.134
791.93	0.133
792.37	0.135
792.80	0.131
793.24	0.133
793.68	0.135
794.11	0.135
794.55	0.136
794.99	0.138
795.42	0.132
795.86	0.136
796.30	0.133
796.73	0.133
797.17	0.133
797.61	0.132
798.04	0.133
798.48	0.135
798.91	0.134
799.35	0.133
799.79	0.134
800.22	0.136
800.66	0.132
801.10	0.133
801.53	0.134
801.97	0.138
802.40	0.137
802.84	0.130
803.28	0.132
803.71	0.133
804.15	0.130
804.58	0.131
805.02	0.135
805.46	0.133
805.89	0.133
806.33	0.133
806.76	0.132
807.20	0.134
807.63	0.132
808.07	0.138
808.51	0.131
808.94	0.128
809.38	0.131
809.81	0.133
810.25	0.135
810.68	0.133
811.12	0.132
811.55	0.131
811.99	0.131
812.42	0.134
812.86	0.131
813.29	0.128
813.73	0.130
814.17	0.133
814.60	0.128
815.04	0.128
815.47	0.129
815.91	0.129
816.34	0.130
816.78	0.129
817.21	0.136
817.65	0.131
818.08	0.129
818.52	0.134
818.95	0.133
819.39	0.135
819.82	0.130
820.25	0.132
820.69	0.129
821.12	0.131
821.56	0.129
821.99	0.131
822.43	0.125
822.86	0.134
823.30	0.133
823.73	0.133
824.17	0.129
824.60	0.126
825.04	0.132
825.47	0.126
825.90	0.126
826.34	0.130
826.77	0.127
827.21	0.135
827.64	0.133
828.08	0.129
828.51	0.128
828.94	0.131
829.38	0.130
829.81	0.132
830.25	0.133
830.68	0.134
831.11	0.131
831.55	0.132
831.98	0.135
832.42	0.131
832.85	0.136
833.28	0.134
833.72	0.135
834.15	0.132
834.58	0.135
835.02	0.135
835.45	0.132
835.88	0.135
836.32	0.138
836.75	0.132
837.19	0.136
837.62	0.136
838.05	0.136
838.49	0.137
838.92	0.134
839.35	0.135
839.79	0.133
840.22	0.136
840.65	0.134
841.09	0.133
841.52	0.135
841.95	0.135
842.39	0.136
842.82	0.132
843.25	0.135
843.68	0.138
844.12	0.134
844.55	0.132
844.98	0.132
845.42	0.131
845.85	0.132
846.28	0.128
846.71	0.132
847.15	0.138
847.58	0.137
848.01	0.140
848.45	0.136
848.88	0.139
849.31	0.134
849.74	0.135
850.18	0.137
850.61	0.137
851.04	0.139
851.47	0.135
851.91	0.134
852.34	0.135
852.77	0.136
853.20	0.134
853.64	0.133
854.07	0.133
854.50	0.130
854.93	0.137
855.36	0.137
855.80	0.135
856.23	0.134
856.66	0.136
857.09	0.132
857.52	0.132
857.96	0.132
858.39	0.137
858.82	0.131
859.25	0.138
859.68	0.137
860.12	0.128
860.55	0.130
860.98	0.135
861.41	0.133
861.84	0.136
862.27	0.129
862.71	0.136
863.14	0.130
863.57	0.134
864.00	0.132
864.43	0.137
864.86	0.136
865.30	0.138
865.73	0.140
866.16	0.138
866.59	0.133
867.02	0.136
867.45	0.137
867.88	0.137
868.31	0.134
868.75	0.139
869.18	0.136
869.61	0.138
870.04	0.134
870.47	0.140
870.90	0.137
871.33	0.137
871.76	0.136
872.19	0.139
872.62	0.136
873.06	0.131
873.49	0.135
873.92	0.135
874.35	0.132
874.78	0.135
875.21	0.137
875.64	0.130
876.07	0.137
876.50	0.136
876.93	0.142
877.36	0.138
877.79	0.136
878.22	0.132
878.65	0.134
879.08	0.133
879.51	0.136
879.94	0.136
880.37	0.139
880.80	0.143
881.23	0.132
881.67	0.138
882.10	0.135
882.53	0.140
882.96	0.136
883.39	0.137
883.82	0.133
884.25	0.133
884.68	0.137
885.11	0.138
885.54	0.135
885.97	0.138
886.39	0.132
886.82	0.135
887.25	0.136
887.68	0.137
888.11	0.139
888.54	0.140
888.97	0.139
889.40	0.139
889.83	0.136
890.26	0.135
890.69	0.137
891.12	0.140
891.55	0.138
891.98	0.134
892.41	0.133
892.84	0.138
893.27	0.139
893.70	0.138
894.13	0.140
894.56	0.139
894.98	0.144
895.41	0.141
895.84	0.140
896.27	0.139
896.70	0.139
897.13	0.142
897.56	0.139
897.99	0.138
898.42	0.133
898.85	0.143
899.27	0.137
899.70	0.141
900.13	0.138
900.56	0.140
900.99	0.139
901.42	0.143
901.85	0.138
902.28	0.139
902.70	0.142
903.13	0.140
903.56	0.142
903.99	0.136
904.42	0.138
904.85	0.141
905.27	0.139
905.70	0.140
906.13	0.146
906.56	0.139
906.99	0.140
907.42	0.139
907.84	0.136
908.27	0.140
908.70	0.141
909.13	0.140
909.56	0.137
909.98	0.139
910.41	0.137
910.84	0.136
911.27	0.143
911.70	0.137
912.12	0.139
912.55	0.141
912.98	0.138
913.41	0.144
913.84	0.140
914.26	0.141
914.69	0.140
915.12	0.140
915.55	0.137
915.97	0.141
916.40	0.142
916.83	0.139
917.26	0.145
917.68	0.138
918.11	0.141
918.54	0.137
918.97	0.140
919.39	0.139
919.82	0.138
920.25	0.138
920.67	0.136
921.10	0.143
921.53	0.142
921.96	0.143
922.38	0.141
922.81	0.143
923.24	0.146
923.66	0.140
924.09	0.142
924.52	0.142
924.94	0.147
925.37	0.145
925.80	0.147
926.22	0.142
926.65	0.148
927.08	0.144
927.50	0.145
927.93	0.147
928.36	0.144
928.78	0.147
929.21	0.146
929.64	0.152
930.06	0.155
930.49	0.152
930.92	0.153
931.34	0.157
931.77	0.150
932.20	0.155
932.62	0.154
933.05	0.158
933.47	0.158
933.90	0.157
934.33	0.156
934.75	0.159
935.18	0.159
935.61	0.162
936.03	0.162
936.46	0.159
936.88	0.165
937.31	0.168
937.73	0.168
938.16	0.169
938.59	0.167
939.01	0.177
939.44	0.175
939.86	0.182
940.29	0.177
940.71	0.181
941.14	0.184
941.57	0.184
941.99	0.184
942.42	0.189
942.84	0.198
943.27	0.200
943.69	0.194
944.12	0.196
944.54	0.199
944.97	0.197
945.39	0.192
945.82	0.199
946.24	0.208
946.67	0.206
947.09	0.202
947.52	0.205
947.94	0.214
948.37	0.216
948.79	0.215
949.22	0.216
949.64	0.213
950.07	0.224
950.49	0.215
950.92	0.222
951.34	0.226
951.77	0.227
952.19	0.230
952.62	0.236
953.04	0.241
953.47	0.246
953.89	0.243
954.32	0.254
954.74	0.254
955.17	0.249
955.59	0.261
956.01	0.254
956.44	0.258
956.86	0.267
957.29	0.265
957.71	0.273
958.14	0.269
958.56	0.269
958.98	0.273
959.41	0.275
959.83	0.279
960.26	0.279
960.68	0.285
961.10	0.278
961.53	0.285
961.95	0.287
962.38	0.287
962.80	0.284
963.22	0.285
963.65	0.291
964.07	0.285
964.50	0.292
964.92	0.295
965.34	0.290
965.77	0.286
966.19	0.294
966.61	0.295
967.04	0.290
967.46	0.287
967.88	0.297
968.31	0.299
968.73	0.293
969.15	0.292
969.58	0.295
970.00	0.295
970.42	0.293
970.85	0.292
971.27	0.299
971.69	0.293
972.12	0.298
972.54	0.298
972.96	0.296
973.39	0.301
973.81	0.301
974.23	0.302
974.65	0.301
975.08	0.297
975.50	0.299
975.92	0.304
976.35	0.299
976.77	0.297
977.19	0.301
977.61	0.299
978.04	0.295
978.46	0.297
978.88	0.300
979.30	0.298
979.73	0.298
980.15	0.299
980.57	0.308
980.99	0.300
981.42	0.302
981.84	0.306
982.26	0.297
982.68	0.293
983.11	0.296
983.53	0.292
983.95	0.298
984.37	0.293
984.79	0.298
985.22	0.297
985.64	0.296
986.06	0.290
986.48	0.294
986.90	0.296
987.33	0.290
987.75	0.291
988.17	0.291
988.59	0.287
989.01	0.281
989.43	0.284
989.86	0.288
990.28	0.290
990.70	0.290
991.12	0.292
991.54	0.288
991.96	0.290
992.39	0.283
992.81	0.282
993.23	0.280
993.65	0.277
994.07	0.288
994.49	0.283
994.91	0.281
995.34	0.277
995.76	0.282
996.18	0.273
996.60	0.275
997.02	0.281
997.44	0.272
997.86	0.275
998.28	0.275
998.70	0.277
999.12	0.274
999.55	0.273
999.97	0.271
1000.39	0.269
1000.81	0.274
1001.23	0.270
1001.65	0.273
1002.07	0.274
1002.49	0.275
1002.91	0.264
1003.33	0.265
1003.75	0.265
1004.17	0.264
1004.59	0.261
1005.01	0.267
1005.43	0.263
1005.85	0.267
1006.28	0.267
1006.70	0.260
1007.12	0.254
1007.54	0.261
1007.96	0.264
1008.38	0.255
1008.80	0.253
1009.22	0.252
1009.64	0.260
1010.06	0.256
1010.48	0.259
1010.90	0.262
1011.32	0.252
1011.74	0.244
1012.16	0.253
1012.58	0.256
1013.00	0.243
1013.42	0.241
1013.84	0.251
1014.26	0.243
1014.67	0.241
1015.09	0.231
1015.51	0.248
1015.93	0.243
1016.35	0.241
1016.77	0.246
1017.19	0.239
1017.61	0.236
1018.03	0.231
1018.45	0.245
1018.87	0.246
1019.29	0.237
1019.71	0.232
1020.13	0.232
1020.55	0.228
1020.97	0.229
1021.38	0.242
1021.80	0.226
1022.22	0.220
1022.64	0.223
1023.06	0.230
1023.48	0.224
1023.90	0.215
1024.32	0.216
1024.74	0.235
1025.15	0.216
1025.57	0.208
1025.99	0.220
1026.41	0.221
1026.83	0.221
1027.25	0.227
1027.67	0.228
1028.08	0.217
1028.50	0.224
1028.92	0.228
1029.34	0.216
1029.76	0.228
1030.18	0.219
1030.60	0.219
1031.01	0.214
1031.43	0.215
1031.85	0.208
1032.27	0.211
1032.69	0.206
1033.10	0.220
1033.52	0.199
1033.94	0.205
1034.36	0.208
1034.78	0.202
1035.19	0.222
1035.61	0.202
1036.03	0.201
1036.45	0.207
1036.87	0.204
1037.28	0.208
1037.70	0.198
1038.12	0.200
1038.54	0.195
1038.95	0.187
1039.37	0.207
1039.79	0.213
1040.21	0.208
1040.62	0.208
1041.04	0.198
1041.46	0.197
1041.88	0.218
1042.29	0.192
1042.71	0.206
1043.13	0.208
1043.55	0.190
1043.96	0.200
1044.38	0.211
1044.80	0.208
1045.21	0.200
1045.63	0.187
1046.05	0.178
1046.47	0.209
1046.88	0.177
1047.30	0.213
1047.72	0.182
1048.13	0.181
1048.55	0.169
1048.97	0.189
1049.38	0.209
1049.80	0.197
1050.22	0.207
1050.63	0.168
1051.05	0.190
1051.47	0.191
1051.88	0.192
1052.30	0.202
1052.72	0.202
1053.13	0.191
1053.55	0.203
1053.97	0.195
1054.38	0.174
1054.80	0.231
1055.21	0.209
1055.63	0.219
1056.05	0.188
1056.46	0.196
1056.88	0.206
1057.29	0.203
1057.71	0.214
1058.13	0.241
1058.54	0.246
1058.96	0.185
1059.37	0.239
1059.79	0.227
1060.21	0.230
1060.62	0.231
1061.04	0.272
1061.45	0.219
1061.87	0.192
1062.28	0.235
1062.70	0.240
1063.12	0.186
1063.53	0.195
1063.95	0.272
1064.36	0.223
1064.78	0.257
1065.19	0.298
1065.61	0.240
1066.02	0.252
1066.44	0.218
1066.85	0.275
1067.27	0.273
1067.68	0.257
1068.10	0.239
1068.51	0.341
1068.93	0.258
1069.35	0.421
1069.76	0.385
1070.17	0.265
1070.59	0.335
1071.00	0.357
1071.42	0.369
1071.83	0.375
1072.25	0.466
1072.66	0.260
1073.08	0.545
1073.49	0.381
1073.91	0.353
1074.32	0.423
1074.74	0.310
1075.15	0.531
1075.57	0.288
1075.98	0.583
1076.40	0.380
1076.81	0.702
1077.22	0.400
1077.64	0.446
1078.05	0.677
1078.47	0.638
1078.88	0.708
1079.30	0.602
1079.71	-0.000
1080.12	-0.000
1080.54	-0.000
1080.95	0.810
1081.37	1.054
1081.78	0.524
1082.19	0.860
1082.61	1.953
1083.02	1.449
1083.44	-0.000
1083.85	0.800
1084.26	-0.000
1084.68	-0.000
1085.09	-0.000
1085.50	-0.000
1085.92	-0.000
1086.33	-0.000
1086.74	-0.000
1087.16	-0.000
1087.57	-0.000
1087.98	-0.000
1088.40	-0.000
1088.81	1.062
1089.22	-0.000
1089.64	1.422
1090.05	-0.000
1090.46	-0.000
1090.88	-0.000
1091.29	-0.000
1091.70	-0.000
1092.12	-0.000
1092.53	-0.000
1092.94	-0.000
1093.36	-0.000
1093.77	-0.000
1094.18	-0.000
1094.59	-0.000
1095.01	-0.000
1095.42	-0.000
1095.83	-0.000
1096.25	-0.000
1096.66	-0.000
1097.07	-0.000
1097.48	-0.000
1097.90	-0.000
1098.31	-0.000
1098.72	-0.000
1099.13	-0.000
>>>>>End Processed Spectral Data<<<<<
