SpectraSuite Data File
++++++++++++++++++++++++++++++++++++
Date: Sun Apr 24 15:06:34 CEST 2016
User: spectrasuite
Dark Spectrum Present: Yes
Reference Spectrum Present: Yes
Number of Sampled Component Spectra: 1
Spectrometers: HR+C0708
Integration Time (usec): 1000 (HR+C0708)
Spectra Averaged: 10 (HR+C0708)
Boxcar Smoothing: 0 (HR+C0708)
Correct for Electrical Dark: No (HR+C0708)
Strobe/Lamp Enabled: No (HR+C0708)
Correct for Detector Non-linearity: No (HR+C0708)
Correct for Stray Light: No (HR+C0708)
Number of Pixels in Processed Spectrum: 2048
>>>>>Begin Processed Spectral Data<<<<<
188.76	-0.000
189.23	-0.000
189.70	-0.000
190.17	-0.000
190.64	-0.000
191.12	-0.000
191.59	-0.000
192.06	-0.000
192.53	-0.000
193.01	-0.000
193.48	-0.000
193.95	-0.000
194.42	-0.000
194.90	-0.000
195.37	-0.000
195.84	-0.000
196.31	-0.000
196.78	-0.000
197.26	-0.000
197.73	-0.000
198.20	-0.000
198.67	-0.000
199.14	-0.000
199.62	-0.000
200.09	1.618
200.56	-0.000
201.03	-0.000
201.50	1.197
201.97	1.105
202.45	-0.000
202.92	1.098
203.39	-0.000
203.86	-0.000
204.33	0.849
204.80	1.089
205.28	0.880
205.75	-0.000
206.22	-0.000
206.69	-0.000
207.16	2.170
207.63	0.596
208.11	0.812
208.58	1.129
209.05	0.893
209.52	1.536
209.99	2.020
210.46	-0.000
210.93	-0.000
211.41	2.021
211.88	-0.000
212.35	-0.000
212.82	1.319
213.29	0.800
213.76	1.156
214.23	1.153
214.70	1.487
215.18	-0.000
215.65	1.329
216.12	1.145
216.59	-0.000
217.06	1.356
217.53	1.535
218.00	1.257
218.47	1.243
218.94	1.597
219.41	1.266
219.89	-0.000
220.36	-0.000
220.83	1.350
221.30	1.103
221.77	1.461
222.24	1.258
222.71	-0.000
223.18	-0.000
223.65	2.027
224.12	1.734
224.59	-0.000
225.06	1.378
225.54	1.316
226.01	1.147
226.48	1.656
226.95	-0.000
227.42	-0.000
227.89	-0.000
228.36	1.435
228.83	1.853
229.30	1.512
229.77	1.497
230.24	1.653
230.71	1.972
231.18	-0.000
231.65	3.718
232.12	2.111
232.59	2.739
233.06	2.297
233.53	1.732
234.00	2.108
234.47	2.491
234.94	3.437
235.41	3.172
235.88	2.697
236.35	3.109
236.82	2.203
237.29	2.320
237.76	2.638
238.23	3.119
238.70	3.423
239.17	2.341
239.64	2.786
240.11	2.684
240.58	2.709
241.05	2.732
241.52	2.673
241.99	-0.000
242.46	2.816
242.93	-0.000
243.40	3.105
243.87	2.571
244.34	2.563
244.81	2.975
245.28	-0.000
245.75	2.982
246.22	3.553
246.69	3.315
247.16	2.835
247.63	2.874
248.10	3.040
248.57	3.237
249.04	3.860
249.51	-0.000
249.98	3.758
250.45	3.032
250.92	3.055
251.39	3.136
251.85	2.949
252.32	-0.000
252.79	3.629
253.26	2.878
253.73	4.123
254.20	2.920
254.67	2.784
255.14	3.123
255.61	3.858
256.08	-0.000
256.55	-0.000
257.02	3.393
257.49	-0.000
257.95	2.986
258.42	3.086
258.89	2.758
259.36	3.507
259.83	-0.000
260.30	3.682
260.77	4.041
261.24	2.958
261.71	3.525
262.17	3.213
262.64	2.983
263.11	3.187
263.58	-0.000
264.05	3.124
264.52	3.207
264.99	2.839
265.46	2.945
265.92	3.091
266.39	3.124
266.86	-0.000
267.33	3.152
267.80	2.748
268.27	3.708
268.74	3.074
269.20	3.457
269.67	2.900
270.14	2.725
270.61	2.794
271.08	2.807
271.55	2.925
272.01	3.000
272.48	2.699
272.95	2.715
273.42	2.808
273.89	2.866
274.36	2.724
274.82	2.705
275.29	2.623
275.76	2.649
276.23	2.743
276.70	2.757
277.16	2.720
277.63	2.632
278.10	2.583
278.57	2.552
279.04	2.600
279.50	2.570
279.97	2.533
280.44	2.474
280.91	2.572
281.38	2.545
281.84	2.558
282.31	2.588
282.78	2.871
283.25	2.510
283.72	2.446
284.18	2.458
284.65	2.507
285.12	2.471
285.59	2.413
286.05	2.489
286.52	2.412
286.99	2.448
287.46	2.493
287.92	2.434
288.39	2.365
288.86	2.467
289.33	2.360
289.79	2.348
290.26	2.325
290.73	2.314
291.20	2.317
291.66	2.412
292.13	2.336
292.60	2.252
293.07	2.292
293.53	2.252
294.00	2.289
294.47	2.336
294.93	2.292
295.40	2.277
295.87	2.285
296.34	2.284
296.80	2.219
297.27	2.217
297.74	2.209
298.20	2.214
298.67	2.154
299.14	2.232
299.60	2.208
300.07	2.218
300.54	2.135
301.01	2.155
301.47	2.116
301.94	2.114
302.41	2.135
302.87	2.126
303.34	2.211
303.81	2.073
304.27	2.124
304.74	2.054
305.21	2.053
305.67	2.106
306.14	2.013
306.61	2.100
307.07	2.101
307.54	2.039
308.01	2.055
308.47	2.052
308.94	2.067
309.40	2.051
309.87	2.015
310.34	2.011
310.80	2.049
311.27	2.050
311.74	2.051
312.20	2.046
312.67	1.990
313.13	1.989
313.60	2.005
314.07	2.025
314.53	1.961
315.00	1.953
315.47	2.033
315.93	1.985
316.40	1.942
316.86	1.949
317.33	1.983
317.80	1.923
318.26	1.956
318.73	1.969
319.19	1.932
319.66	1.904
320.13	1.934
320.59	1.914
321.06	1.909
321.52	1.924
321.99	1.869
322.45	1.846
322.92	1.830
323.39	1.860
323.85	1.834
324.32	1.841
324.78	1.830
325.25	1.803
325.71	1.800
326.18	1.803
326.64	1.793
327.11	1.785
327.58	1.759
328.04	1.745
328.51	1.779
328.97	1.759
329.44	1.716
329.90	1.727
330.37	1.723
330.83	1.680
331.30	1.697
331.76	1.689
332.23	1.688
332.69	1.656
333.16	1.623
333.62	1.622
334.09	1.587
334.56	1.577
335.02	1.570
335.49	1.553
335.95	1.522
336.42	1.496
336.88	1.491
337.35	1.480
337.81	1.443
338.28	1.414
338.74	1.411
339.20	1.399
339.67	1.370
340.13	1.351
340.60	1.316
341.06	1.289
341.53	1.265
341.99	1.248
342.46	1.216
342.92	1.187
343.39	1.165
343.85	1.149
344.32	1.129
344.78	1.113
345.25	1.098
345.71	1.076
346.17	1.055
346.64	1.031
347.10	1.005
347.57	0.976
348.03	0.959
348.50	0.934
348.96	0.919
349.43	0.900
349.89	0.880
350.35	0.863
350.82	0.853
351.28	0.839
351.75	0.816
352.21	0.805
352.67	0.787
353.14	0.777
353.60	0.764
354.07	0.751
354.53	0.737
355.00	0.727
355.46	0.714
355.92	0.711
356.39	0.702
356.85	0.693
357.31	0.684
357.78	0.671
358.24	0.653
358.71	0.656
359.17	0.640
359.63	0.640
360.10	0.633
360.56	0.630
361.03	0.623
361.49	0.620
361.95	0.614
362.42	0.611
362.88	0.607
363.34	0.600
363.81	0.595
364.27	0.594
364.73	0.592
365.20	0.591
365.66	0.583
366.12	0.581
366.59	0.579
367.05	0.581
367.51	0.575
367.98	0.567
368.44	0.568
368.90	0.569
369.37	0.565
369.83	0.560
370.29	0.560
370.76	0.558
371.22	0.557
371.68	0.555
372.15	0.549
372.61	0.547
373.07	0.549
373.54	0.543
374.00	0.543
374.46	0.542
374.92	0.544
375.39	0.537
375.85	0.535
376.31	0.536
376.78	0.531
377.24	0.530
377.70	0.532
378.16	0.528
378.63	0.527
379.09	0.523
379.55	0.524
380.01	0.522
380.48	0.520
380.94	0.521
381.40	0.518
381.87	0.513
382.33	0.514
382.79	0.510
383.25	0.509
383.72	0.509
384.18	0.507
384.64	0.506
385.10	0.503
385.56	0.507
386.03	0.502
386.49	0.497
386.95	0.499
387.41	0.493
387.88	0.496
388.34	0.492
388.80	0.490
389.26	0.493
389.72	0.490
390.19	0.489
390.65	0.486
391.11	0.486
391.57	0.484
392.04	0.481
392.50	0.477
392.96	0.480
393.42	0.476
393.88	0.477
394.34	0.475
394.81	0.475
395.27	0.473
395.73	0.473
396.19	0.469
396.65	0.464
397.12	0.465
397.58	0.466
398.04	0.466
398.50	0.463
398.96	0.463
399.42	0.466
399.89	0.459
400.35	0.459
400.81	0.455
401.27	0.456
401.73	0.456
402.19	0.450
402.65	0.453
403.12	0.448
403.58	0.447
404.04	0.448
404.50	0.448
404.96	0.447
405.42	0.443
405.88	0.441
406.34	0.445
406.81	0.442
407.27	0.441
407.73	0.440
408.19	0.436
408.65	0.435
409.11	0.434
409.57	0.434
410.03	0.428
410.49	0.431
410.96	0.431
411.42	0.430
411.88	0.427
412.34	0.424
412.80	0.430
413.26	0.423
413.72	0.422
414.18	0.421
414.64	0.419
415.10	0.419
415.56	0.422
416.02	0.420
416.48	0.418
416.95	0.411
417.41	0.415
417.87	0.412
418.33	0.414
418.79	0.410
419.25	0.412
419.71	0.409
420.17	0.407
420.63	0.407
421.09	0.407
421.55	0.405
422.01	0.406
422.47	0.405
422.93	0.404
423.39	0.401
423.85	0.401
424.31	0.401
424.77	0.398
425.23	0.397
425.69	0.402
426.15	0.398
426.61	0.398
427.07	0.391
427.53	0.390
427.99	0.388
428.45	0.390
428.91	0.392
429.37	0.390
429.83	0.390
430.29	0.387
430.75	0.389
431.21	0.386
431.67	0.388
432.13	0.386
432.59	0.378
433.05	0.383
433.51	0.377
433.97	0.381
434.43	0.378
434.89	0.383
435.35	0.381
435.81	0.378
436.27	0.374
436.73	0.378
437.19	0.375
437.65	0.379
438.11	0.371
438.57	0.375
439.03	0.374
439.48	0.371
439.94	0.368
440.40	0.370
440.86	0.370
441.32	0.364
441.78	0.369
442.24	0.364
442.70	0.365
443.16	0.360
443.62	0.361
444.08	0.363
444.54	0.362
444.99	0.357
445.45	0.358
445.91	0.360
446.37	0.360
446.83	0.358
447.29	0.357
447.75	0.355
448.21	0.357
448.67	0.351
449.12	0.351
449.58	0.354
450.04	0.350
450.50	0.351
450.96	0.352
451.42	0.348
451.88	0.343
452.34	0.348
452.79	0.348
453.25	0.348
453.71	0.345
454.17	0.344
454.63	0.346
455.09	0.344
455.55	0.343
456.00	0.342
456.46	0.343
456.92	0.340
457.38	0.341
457.84	0.335
458.30	0.338
458.75	0.335
459.21	0.334
459.67	0.338
460.13	0.333
460.59	0.336
461.04	0.333
461.50	0.332
461.96	0.331
462.42	0.332
462.88	0.330
463.33	0.328
463.79	0.326
464.25	0.327
464.71	0.326
465.17	0.328
465.62	0.328
466.08	0.328
466.54	0.325
467.00	0.326
467.46	0.325
467.91	0.322
468.37	0.322
468.83	0.320
469.29	0.322
469.74	0.320
470.20	0.321
470.66	0.319
471.12	0.317
471.57	0.317
472.03	0.315
472.49	0.315
472.95	0.318
473.40	0.314
473.86	0.314
474.32	0.313
474.78	0.315
475.23	0.308
475.69	0.312
476.15	0.312
476.60	0.313
477.06	0.309
477.52	0.307
477.98	0.306
478.43	0.306
478.89	0.306
479.35	0.304
479.80	0.307
480.26	0.304
480.72	0.301
481.18	0.305
481.63	0.305
482.09	0.303
482.55	0.302
483.00	0.302
483.46	0.301
483.92	0.302
484.37	0.302
484.83	0.299
485.29	0.298
485.74	0.299
486.20	0.298
486.66	0.298
487.11	0.296
487.57	0.295
488.03	0.294
488.48	0.295
488.94	0.292
489.40	0.293
489.85	0.294
490.31	0.294
490.77	0.292
491.22	0.292
491.68	0.288
492.13	0.291
492.59	0.289
493.05	0.288
493.50	0.287
493.96	0.288
494.42	0.288
494.87	0.284
495.33	0.285
495.78	0.288
496.24	0.287
496.70	0.285
497.15	0.286
497.61	0.284
498.06	0.282
498.52	0.281
498.98	0.280
499.43	0.282
499.89	0.282
500.34	0.279
500.80	0.280
501.25	0.280
501.71	0.278
502.17	0.278
502.62	0.279
503.08	0.276
503.53	0.275
503.99	0.276
504.44	0.276
504.90	0.276
505.36	0.274
505.81	0.274
506.27	0.275
506.72	0.274
507.18	0.274
507.63	0.272
508.09	0.273
508.54	0.270
509.00	0.269
509.45	0.270
509.91	0.272
510.36	0.268
510.82	0.269
511.27	0.267
511.73	0.268
512.19	0.267
512.64	0.266
513.10	0.265
513.55	0.265
514.01	0.264
514.46	0.265
514.92	0.263
515.37	0.261
515.83	0.266
516.28	0.263
516.73	0.261
517.19	0.262
517.64	0.260
518.10	0.259
518.55	0.259
519.01	0.260
519.46	0.258
519.92	0.260
520.37	0.256
520.83	0.256
521.28	0.257
521.74	0.257
522.19	0.257
522.65	0.255
523.10	0.255
523.55	0.255
524.01	0.257
524.46	0.254
524.92	0.252
525.37	0.254
525.83	0.253
526.28	0.252
526.73	0.253
527.19	0.254
527.64	0.254
528.10	0.251
528.55	0.250
529.01	0.251
529.46	0.251
529.91	0.249
530.37	0.250
530.82	0.248
531.28	0.249
531.73	0.245
532.18	0.247
532.64	0.248
533.09	0.247
533.54	0.246
534.00	0.242
534.45	0.249
534.91	0.247
535.36	0.245
535.81	0.242
536.27	0.243
536.72	0.244
537.17	0.242
537.63	0.243
538.08	0.239
538.54	0.241
538.99	0.242
539.44	0.243
539.90	0.240
540.35	0.237
540.80	0.241
541.26	0.239
541.71	0.237
542.16	0.236
542.62	0.235
543.07	0.237
543.52	0.237
543.98	0.237
544.43	0.236
544.88	0.235
545.34	0.236
545.79	0.233
546.24	0.232
546.69	0.234
547.15	0.232
547.60	0.233
548.05	0.233
548.51	0.230
548.96	0.230
549.41	0.233
549.86	0.232
550.32	0.231
550.77	0.231
551.22	0.230
551.68	0.228
552.13	0.229
552.58	0.226
553.03	0.229
553.49	0.227
553.94	0.227
554.39	0.227
554.84	0.228
555.30	0.227
555.75	0.227
556.20	0.225
556.65	0.224
557.11	0.224
557.56	0.223
558.01	0.225
558.46	0.224
558.92	0.224
559.37	0.221
559.82	0.222
560.27	0.222
560.72	0.221
561.18	0.219
561.63	0.221
562.08	0.219
562.53	0.220
562.99	0.222
563.44	0.222
563.89	0.218
564.34	0.220
564.79	0.219
565.25	0.217
565.70	0.217
566.15	0.216
566.60	0.218
567.05	0.216
567.50	0.217
567.96	0.215
568.41	0.215
568.86	0.216
569.31	0.215
569.76	0.212
570.21	0.214
570.67	0.214
571.12	0.214
571.57	0.212
572.02	0.212
572.47	0.211
572.92	0.212
573.37	0.211
573.83	0.211
574.28	0.212
574.73	0.211
575.18	0.209
575.63	0.211
576.08	0.207
576.53	0.208
576.98	0.209
577.44	0.206
577.89	0.206
578.34	0.206
578.79	0.207
579.24	0.205
579.69	0.206
580.14	0.205
580.59	0.202
581.04	0.204
581.49	0.205
581.95	0.202
582.40	0.203
582.85	0.202
583.30	0.200
583.75	0.203
584.20	0.202
584.65	0.201
585.10	0.202
585.55	0.201
586.00	0.201
586.45	0.201
586.90	0.201
587.35	0.200
587.80	0.199
588.25	0.200
588.71	0.200
589.16	0.199
589.61	0.197
590.06	0.198
590.51	0.199
590.96	0.199
591.41	0.196
591.86	0.197
592.31	0.197
592.76	0.197
593.21	0.196
593.66	0.195
594.11	0.198
594.56	0.195
595.01	0.195
595.46	0.196
595.91	0.195
596.36	0.195
596.81	0.194
597.26	0.193
597.71	0.194
598.16	0.193
598.61	0.192
599.06	0.193
599.51	0.194
599.96	0.195
600.41	0.193
600.86	0.192
601.31	0.192
601.76	0.193
602.21	0.192
602.65	0.192
603.10	0.191
603.55	0.189
604.00	0.191
604.45	0.191
604.90	0.190
605.35	0.188
605.80	0.190
606.25	0.191
606.70	0.190
607.15	0.187
607.60	0.188
608.05	0.186
608.50	0.186
608.95	0.186
609.39	0.186
609.84	0.185
610.29	0.187
610.74	0.186
611.19	0.186
611.64	0.185
612.09	0.185
612.54	0.185
612.99	0.185
613.44	0.184
613.88	0.187
614.33	0.185
614.78	0.182
615.23	0.183
615.68	0.183
616.13	0.184
616.58	0.181
617.03	0.181
617.47	0.184
617.92	0.181
618.37	0.180
618.82	0.181
619.27	0.181
619.72	0.179
620.17	0.179
620.61	0.179
621.06	0.178
621.51	0.178
621.96	0.177
622.41	0.178
622.86	0.179
623.30	0.176
623.75	0.178
624.20	0.176
624.65	0.175
625.10	0.178
625.54	0.179
625.99	0.178
626.44	0.177
626.89	0.176
627.34	0.175
627.78	0.175
628.23	0.175
628.68	0.176
629.13	0.175
629.58	0.174
630.02	0.174
630.47	0.174
630.92	0.174
631.37	0.173
631.81	0.173
632.26	0.173
632.71	0.172
633.16	0.172
633.61	0.172
634.05	0.171
634.50	0.171
634.95	0.171
635.40	0.171
635.84	0.172
636.29	0.170
636.74	0.172
637.18	0.173
637.63	0.172
638.08	0.171
638.53	0.171
638.97	0.169
639.42	0.170
639.87	0.170
640.32	0.166
640.76	0.170
641.21	0.170
641.66	0.169
642.10	0.169
642.55	0.168
643.00	0.168
643.44	0.167
643.89	0.167
644.34	0.166
644.79	0.168
645.23	0.167
645.68	0.166
646.13	0.166
646.57	0.168
647.02	0.166
647.47	0.167
647.91	0.166
648.36	0.166
648.81	0.166
649.25	0.165
649.70	0.164
650.15	0.163
650.59	0.165
651.04	0.164
651.48	0.164
651.93	0.165
652.38	0.163
652.82	0.164
653.27	0.163
653.72	0.163
654.16	0.164
654.61	0.162
655.06	0.161
655.50	0.161
655.95	0.160
656.39	0.157
656.84	0.159
657.29	0.164
657.73	0.161
658.18	0.161
658.62	0.161
659.07	0.161
659.52	0.162
659.96	0.161
660.41	0.161
660.85	0.158
661.30	0.159
661.74	0.162
662.19	0.160
662.64	0.160
663.08	0.159
663.53	0.160
663.97	0.159
664.42	0.158
664.86	0.161
665.31	0.157
665.75	0.157
666.20	0.159
666.65	0.157
667.09	0.157
667.54	0.158
667.98	0.157
668.43	0.156
668.87	0.155
669.32	0.157
669.76	0.155
670.21	0.157
670.65	0.152
671.10	0.157
671.54	0.155
671.99	0.153
672.43	0.153
672.88	0.154
673.32	0.155
673.77	0.151
674.21	0.152
674.66	0.152
675.10	0.155
675.55	0.151
675.99	0.155
676.44	0.151
676.88	0.153
677.33	0.151
677.77	0.154
678.22	0.153
678.66	0.151
679.11	0.151
679.55	0.152
679.99	0.153
680.44	0.154
680.88	0.152
681.33	0.151
681.77	0.150
682.22	0.152
682.66	0.150
683.11	0.151
683.55	0.151
683.99	0.151
684.44	0.148
684.88	0.149
685.33	0.148
685.77	0.149
686.21	0.149
686.66	0.149
687.10	0.147
687.55	0.148
687.99	0.149
688.44	0.151
688.88	0.150
689.32	0.150
689.77	0.149
690.21	0.148
690.65	0.147
691.10	0.148
691.54	0.147
691.99	0.147
692.43	0.149
692.87	0.144
693.32	0.147
693.76	0.147
694.20	0.146
694.65	0.147
695.09	0.150
695.53	0.146
695.98	0.145
696.42	0.147
696.86	0.146
697.31	0.143
697.75	0.144
698.19	0.145
698.64	0.148
699.08	0.145
699.52	0.145
699.97	0.145
700.41	0.145
700.85	0.145
701.30	0.144
701.74	0.145
702.18	0.144
702.63	0.144
703.07	0.145
703.51	0.143
703.96	0.143
704.40	0.146
704.84	0.147
705.28	0.144
705.73	0.144
706.17	0.145
706.61	0.143
707.06	0.142
707.50	0.143
707.94	0.143
708.38	0.140
708.83	0.145
709.27	0.142
709.71	0.144
710.15	0.143
710.60	0.143
711.04	0.141
711.48	0.144
711.92	0.140
712.37	0.144
712.81	0.143
713.25	0.141
713.69	0.143
714.13	0.144
714.58	0.141
715.02	0.142
715.46	0.141
715.90	0.141
716.35	0.140
716.79	0.143
717.23	0.142
717.67	0.141
718.11	0.142
718.56	0.141
719.00	0.142
719.44	0.142
719.88	0.142
720.32	0.138
720.76	0.141
721.21	0.139
721.65	0.138
722.09	0.142
722.53	0.140
722.97	0.141
723.41	0.141
723.86	0.142
724.30	0.140
724.74	0.142
725.18	0.140
725.62	0.139
726.06	0.141
726.50	0.140
726.95	0.140
727.39	0.140
727.83	0.139
728.27	0.142
728.71	0.139
729.15	0.141
729.59	0.140
730.03	0.137
730.48	0.143
730.92	0.139
731.36	0.139
731.80	0.142
732.24	0.142
732.68	0.138
733.12	0.136
733.56	0.139
734.00	0.139
734.44	0.141
734.89	0.140
735.33	0.141
735.77	0.145
736.21	0.138
736.65	0.140
737.09	0.141
737.53	0.140
737.97	0.141
738.41	0.142
738.85	0.142
739.29	0.142
739.73	0.140
740.17	0.141
740.61	0.138
741.05	0.139
741.49	0.139
741.93	0.140
742.37	0.136
742.81	0.138
743.26	0.140
743.70	0.140
744.14	0.140
744.58	0.137
745.02	0.139
745.46	0.140
745.90	0.140
746.34	0.140
746.78	0.139
747.22	0.139
747.66	0.139
748.10	0.140
748.54	0.138
748.98	0.137
749.42	0.138
749.86	0.138
750.29	0.137
750.73	0.135
751.17	0.136
751.61	0.136
752.05	0.139
752.49	0.136
752.93	0.134
753.37	0.135
753.81	0.136
754.25	0.138
754.69	0.132
755.13	0.135
755.57	0.136
756.01	0.138
756.45	0.135
756.89	0.136
757.33	0.137
757.77	0.136
758.21	0.135
758.64	0.134
759.08	0.132
759.52	0.133
759.96	0.137
760.40	0.136
760.84	0.132
761.28	0.132
761.72	0.136
762.16	0.137
762.60	0.135
763.03	0.134
763.47	0.134
763.91	0.134
764.35	0.132
764.79	0.129
765.23	0.130
765.67	0.134
766.11	0.130
766.54	0.131
766.98	0.132
767.42	0.131
767.86	0.130
768.30	0.132
768.74	0.133
769.17	0.134
769.61	0.132
770.05	0.132
770.49	0.133
770.93	0.133
771.37	0.129
771.80	0.131
772.24	0.129
772.68	0.130
773.12	0.131
773.56	0.127
774.00	0.129
774.43	0.128
774.87	0.130
775.31	0.127
775.75	0.126
776.19	0.128
776.62	0.129
777.06	0.129
777.50	0.127
777.94	0.130
778.37	0.127
778.81	0.127
779.25	0.130
779.69	0.127
780.13	0.129
780.56	0.129
781.00	0.128
781.44	0.129
781.88	0.130
782.31	0.126
782.75	0.127
783.19	0.132
783.63	0.125
784.06	0.125
784.50	0.130
784.94	0.127
785.37	0.127
785.81	0.130
786.25	0.129
786.69	0.125
787.12	0.125
787.56	0.127
788.00	0.129
788.43	0.127
788.87	0.127
789.31	0.128
789.75	0.127
790.18	0.127
790.62	0.125
791.06	0.127
791.49	0.126
791.93	0.126
792.37	0.128
792.80	0.124
793.24	0.126
793.68	0.126
794.11	0.126
794.55	0.128
794.99	0.128
795.42	0.126
795.86	0.127
796.30	0.124
796.73	0.128
797.17	0.126
797.61	0.124
798.04	0.124
798.48	0.126
798.91	0.128
799.35	0.125
799.79	0.128
800.22	0.126
800.66	0.122
801.10	0.124
801.53	0.123
801.97	0.127
802.40	0.127
802.84	0.126
803.28	0.122
803.71	0.123
804.15	0.124
804.58	0.123
805.02	0.125
805.46	0.122
805.89	0.126
806.33	0.123
806.76	0.123
807.20	0.123
807.63	0.125
808.07	0.125
808.51	0.122
808.94	0.117
809.38	0.122
809.81	0.120
810.25	0.124
810.68	0.121
811.12	0.122
811.55	0.127
811.99	0.122
812.42	0.122
812.86	0.121
813.29	0.124
813.73	0.124
814.17	0.125
814.60	0.121
815.04	0.120
815.47	0.120
815.91	0.121
816.34	0.122
816.78	0.122
817.21	0.126
817.65	0.122
818.08	0.123
818.52	0.125
818.95	0.125
819.39	0.125
819.82	0.122
820.25	0.122
820.69	0.122
821.12	0.123
821.56	0.121
821.99	0.117
822.43	0.120
822.86	0.126
823.30	0.121
823.73	0.121
824.17	0.119
824.60	0.121
825.04	0.122
825.47	0.124
825.90	0.120
826.34	0.125
826.77	0.119
827.21	0.123
827.64	0.122
828.08	0.121
828.51	0.126
828.94	0.122
829.38	0.118
829.81	0.127
830.25	0.124
830.68	0.128
831.11	0.126
831.55	0.121
831.98	0.128
832.42	0.123
832.85	0.124
833.28	0.128
833.72	0.128
834.15	0.118
834.58	0.124
835.02	0.126
835.45	0.127
835.88	0.124
836.32	0.127
836.75	0.126
837.19	0.126
837.62	0.129
838.05	0.128
838.49	0.125
838.92	0.124
839.35	0.129
839.79	0.126
840.22	0.126
840.65	0.125
841.09	0.129
841.52	0.124
841.95	0.125
842.39	0.129
842.82	0.124
843.25	0.122
843.68	0.123
844.12	0.126
844.55	0.124
844.98	0.124
845.42	0.129
845.85	0.124
846.28	0.126
846.71	0.125
847.15	0.129
847.58	0.130
848.01	0.129
848.45	0.125
848.88	0.132
849.31	0.124
849.74	0.123
850.18	0.125
850.61	0.129
851.04	0.130
851.47	0.127
851.91	0.133
852.34	0.131
852.77	0.128
853.20	0.125
853.64	0.121
854.07	0.130
854.50	0.127
854.93	0.129
855.36	0.129
855.80	0.127
856.23	0.124
856.66	0.130
857.09	0.126
857.52	0.123
857.96	0.124
858.39	0.126
858.82	0.122
859.25	0.127
859.68	0.127
860.12	0.121
860.55	0.125
860.98	0.129
861.41	0.119
861.84	0.125
862.27	0.123
862.71	0.128
863.14	0.127
863.57	0.126
864.00	0.124
864.43	0.131
864.86	0.126
865.30	0.127
865.73	0.128
866.16	0.127
866.59	0.127
867.02	0.121
867.45	0.126
867.88	0.127
868.31	0.126
868.75	0.132
869.18	0.131
869.61	0.125
870.04	0.131
870.47	0.133
870.90	0.129
871.33	0.125
871.76	0.127
872.19	0.130
872.62	0.132
873.06	0.122
873.49	0.130
873.92	0.125
874.35	0.130
874.78	0.131
875.21	0.126
875.64	0.125
876.07	0.135
876.50	0.129
876.93	0.127
877.36	0.128
877.79	0.133
878.22	0.127
878.65	0.130
879.08	0.130
879.51	0.132
879.94	0.124
880.37	0.127
880.80	0.133
881.23	0.126
881.67	0.135
882.10	0.134
882.53	0.126
882.96	0.133
883.39	0.128
883.82	0.127
884.25	0.127
884.68	0.128
885.11	0.133
885.54	0.134
885.97	0.127
886.39	0.128
886.82	0.133
887.25	0.128
887.68	0.135
888.11	0.129
888.54	0.132
888.97	0.132
889.40	0.132
889.83	0.129
890.26	0.130
890.69	0.128
891.12	0.134
891.55	0.133
891.98	0.128
892.41	0.131
892.84	0.133
893.27	0.132
893.70	0.133
894.13	0.135
894.56	0.135
894.98	0.134
895.41	0.137
895.84	0.130
896.27	0.135
896.70	0.133
897.13	0.135
897.56	0.133
897.99	0.130
898.42	0.130
898.85	0.137
899.27	0.134
899.70	0.130
900.13	0.133
900.56	0.137
900.99	0.135
901.42	0.136
901.85	0.136
902.28	0.134
902.70	0.134
903.13	0.135
903.56	0.136
903.99	0.132
904.42	0.135
904.85	0.139
905.27	0.135
905.70	0.134
906.13	0.134
906.56	0.132
906.99	0.136
907.42	0.133
907.84	0.131
908.27	0.131
908.70	0.138
909.13	0.135
909.56	0.134
909.98	0.133
910.41	0.134
910.84	0.134
911.27	0.138
911.70	0.130
912.12	0.127
912.55	0.131
912.98	0.136
913.41	0.135
913.84	0.135
914.26	0.131
914.69	0.131
915.12	0.133
915.55	0.129
915.97	0.134
916.40	0.134
916.83	0.130
917.26	0.132
917.68	0.133
918.11	0.132
918.54	0.137
918.97	0.133
919.39	0.134
919.82	0.133
920.25	0.133
920.67	0.135
921.10	0.138
921.53	0.136
921.96	0.139
922.38	0.135
922.81	0.133
923.24	0.140
923.66	0.137
924.09	0.139
924.52	0.138
924.94	0.138
925.37	0.139
925.80	0.141
926.22	0.137
926.65	0.139
927.08	0.138
927.50	0.137
927.93	0.143
928.36	0.137
928.78	0.142
929.21	0.142
929.64	0.146
930.06	0.148
930.49	0.149
930.92	0.147
931.34	0.149
931.77	0.151
932.20	0.149
932.62	0.151
933.05	0.147
933.47	0.152
933.90	0.152
934.33	0.151
934.75	0.153
935.18	0.155
935.61	0.156
936.03	0.153
936.46	0.156
936.88	0.157
937.31	0.162
937.73	0.158
938.16	0.161
938.59	0.169
939.01	0.167
939.44	0.170
939.86	0.174
940.29	0.169
940.71	0.174
941.14	0.172
941.57	0.175
941.99	0.176
942.42	0.176
942.84	0.185
943.27	0.181
943.69	0.188
944.12	0.187
944.54	0.190
944.97	0.184
945.39	0.189
945.82	0.196
946.24	0.198
946.67	0.203
947.09	0.198
947.52	0.199
947.94	0.197
948.37	0.207
948.79	0.202
949.22	0.209
949.64	0.204
950.07	0.213
950.49	0.221
950.92	0.218
951.34	0.217
951.77	0.219
952.19	0.220
952.62	0.234
953.04	0.234
953.47	0.238
953.89	0.236
954.32	0.241
954.74	0.239
955.17	0.238
955.59	0.248
956.01	0.251
956.44	0.250
956.86	0.253
957.29	0.256
957.71	0.267
958.14	0.262
958.56	0.258
958.98	0.270
959.41	0.263
959.83	0.263
960.26	0.264
960.68	0.272
961.10	0.277
961.53	0.278
961.95	0.272
962.38	0.278
962.80	0.276
963.22	0.277
963.65	0.282
964.07	0.280
964.50	0.285
964.92	0.286
965.34	0.279
965.77	0.284
966.19	0.287
966.61	0.288
967.04	0.292
967.46	0.284
967.88	0.294
968.31	0.288
968.73	0.285
969.15	0.284
969.58	0.289
970.00	0.288
970.42	0.285
970.85	0.284
971.27	0.294
971.69	0.287
972.12	0.295
972.54	0.294
972.96	0.291
973.39	0.295
973.81	0.296
974.23	0.295
974.65	0.291
975.08	0.293
975.50	0.289
975.92	0.297
976.35	0.291
976.77	0.284
977.19	0.296
977.61	0.288
978.04	0.290
978.46	0.295
978.88	0.289
979.30	0.296
979.73	0.288
980.15	0.295
980.57	0.298
980.99	0.296
981.42	0.292
981.84	0.298
982.26	0.293
982.68	0.287
983.11	0.291
983.53	0.290
983.95	0.298
984.37	0.291
984.79	0.295
985.22	0.289
985.64	0.288
986.06	0.284
986.48	0.292
986.90	0.286
987.33	0.281
987.75	0.284
988.17	0.280
988.59	0.279
989.01	0.285
989.43	0.282
989.86	0.286
990.28	0.286
990.70	0.279
991.12	0.281
991.54	0.282
991.96	0.279
992.39	0.277
992.81	0.279
993.23	0.277
993.65	0.274
994.07	0.278
994.49	0.272
994.91	0.282
995.34	0.265
995.76	0.270
996.18	0.278
996.60	0.280
997.02	0.271
997.44	0.267
997.86	0.274
998.28	0.266
998.70	0.266
999.12	0.269
999.55	0.271
999.97	0.266
1000.39	0.266
1000.81	0.268
1001.23	0.270
1001.65	0.266
1002.07	0.270
1002.49	0.260
1002.91	0.254
1003.33	0.260
1003.75	0.255
1004.17	0.256
1004.59	0.258
1005.01	0.261
1005.43	0.259
1005.85	0.251
1006.28	0.248
1006.70	0.252
1007.12	0.251
1007.54	0.254
1007.96	0.252
1008.38	0.248
1008.80	0.254
1009.22	0.240
1009.64	0.249
1010.06	0.253
1010.48	0.242
1010.90	0.249
1011.32	0.241
1011.74	0.234
1012.16	0.239
1012.58	0.239
1013.00	0.239
1013.42	0.234
1013.84	0.223
1014.26	0.240
1014.67	0.243
1015.09	0.236
1015.51	0.232
1015.93	0.235
1016.35	0.233
1016.77	0.222
1017.19	0.236
1017.61	0.222
1018.03	0.232
1018.45	0.229
1018.87	0.232
1019.29	0.229
1019.71	0.216
1020.13	0.230
1020.55	0.229
1020.97	0.214
1021.38	0.216
1021.80	0.221
1022.22	0.217
1022.64	0.204
1023.06	0.214
1023.48	0.224
1023.90	0.221
1024.32	0.201
1024.74	0.213
1025.15	0.214
1025.57	0.209
1025.99	0.203
1026.41	0.214
1026.83	0.203
1027.25	0.215
1027.67	0.212
1028.08	0.210
1028.50	0.214
1028.92	0.196
1029.34	0.214
1029.76	0.214
1030.18	0.202
1030.60	0.213
1031.01	0.211
1031.43	0.203
1031.85	0.209
1032.27	0.196
1032.69	0.198
1033.10	0.204
1033.52	0.197
1033.94	0.199
1034.36	0.189
1034.78	0.209
1035.19	0.203
1035.61	0.201
1036.03	0.196
1036.45	0.175
1036.87	0.196
1037.28	0.191
1037.70	0.200
1038.12	0.181
1038.54	0.184
1038.95	0.183
1039.37	0.181
1039.79	0.187
1040.21	0.194
1040.62	0.201
1041.04	0.191
1041.46	0.185
1041.88	0.191
1042.29	0.182
1042.71	0.192
1043.13	0.198
1043.55	0.193
1043.96	0.186
1044.38	0.198
1044.80	0.201
1045.21	0.183
1045.63	0.167
1046.05	0.182
1046.47	0.186
1046.88	0.182
1047.30	0.186
1047.72	0.179
1048.13	0.188
1048.55	0.172
1048.97	0.192
1049.38	0.187
1049.80	0.167
1050.22	0.184
1050.63	0.195
1051.05	0.194
1051.47	0.172
1051.88	0.181
1052.30	0.183
1052.72	0.161
1053.13	0.169
1053.55	0.186
1053.97	0.196
1054.38	0.157
1054.80	0.189
1055.21	0.182
1055.63	0.182
1056.05	0.152
1056.46	0.170
1056.88	0.191
1057.29	0.195
1057.71	0.192
1058.13	0.193
1058.54	0.202
1058.96	0.144
1059.37	0.175
1059.79	0.203
1060.21	0.199
1060.62	0.188
1061.04	0.152
1061.45	0.218
1061.87	0.201
1062.28	0.166
1062.70	0.213
1063.12	0.246
1063.53	0.140
1063.95	0.198
1064.36	0.230
1064.78	0.252
1065.19	0.223
1065.61	0.249
1066.02	0.243
1066.44	0.202
1066.85	0.196
1067.27	0.243
1067.68	0.245
1068.10	0.233
1068.51	0.249
1068.93	0.265
1069.35	0.371
1069.76	0.324
1070.17	0.276
1070.59	0.290
1071.00	0.237
1071.42	0.185
1071.83	0.282
1072.25	0.383
1072.66	0.188
1073.08	0.377
1073.49	0.397
1073.91	0.317
1074.32	0.249
1074.74	0.353
1075.15	0.417
1075.57	0.248
1075.98	0.393
1076.40	0.280
1076.81	0.301
1077.22	0.223
1077.64	0.558
1078.05	0.408
1078.47	0.320
1078.88	0.641
1079.30	0.894
1079.71	0.938
1080.12	0.479
1080.54	0.960
1080.95	0.521
1081.37	-0.000
1081.78	0.278
1082.19	0.476
1082.61	0.839
1083.02	1.391
1083.44	0.721
1083.85	1.619
1084.26	1.587
1084.68	0.560
1085.09	2.157
1085.50	-0.000
1085.92	-0.000
1086.33	0.723
1086.74	0.679
1087.16	-0.000
1087.57	-0.000
1087.98	-0.000
1088.40	-0.000
1088.81	-0.000
1089.22	0.470
1089.64	-0.000
1090.05	-0.000
1090.46	-0.000
1090.88	-0.000
1091.29	-0.000
1091.70	-0.000
1092.12	-0.000
1092.53	-0.000
1092.94	-0.000
1093.36	-0.000
1093.77	-0.000
1094.18	-0.000
1094.59	-0.000
1095.01	-0.000
1095.42	-0.000
1095.83	-0.000
1096.25	-0.000
1096.66	-0.000
1097.07	-0.000
1097.48	-0.000
1097.90	-0.000
1098.31	1.606
1098.72	-0.000
1099.13	-0.000
>>>>>End Processed Spectral Data<<<<<
