SpectraSuite Data File
++++++++++++++++++++++++++++++++++++
Date: Sun Apr 24 16:17:54 CEST 2016
User: spectrasuite
Dark Spectrum Present: Yes
Reference Spectrum Present: Yes
Number of Sampled Component Spectra: 1
Spectrometers: HR+C0708
Integration Time (usec): 1000 (HR+C0708)
Spectra Averaged: 10 (HR+C0708)
Boxcar Smoothing: 0 (HR+C0708)
Correct for Electrical Dark: No (HR+C0708)
Strobe/Lamp Enabled: No (HR+C0708)
Correct for Detector Non-linearity: No (HR+C0708)
Correct for Stray Light: No (HR+C0708)
Number of Pixels in Processed Spectrum: 2048
>>>>>Begin Processed Spectral Data<<<<<
188.76	-0.000
189.23	-0.000
189.70	-0.000
190.17	-0.000
190.64	-0.000
191.12	-0.000
191.59	-0.000
192.06	-0.000
192.53	-0.000
193.01	-0.000
193.48	-0.000
193.95	-0.000
194.42	-0.000
194.90	1.290
195.37	-0.000
195.84	-0.000
196.31	-0.000
196.78	-0.000
197.26	-0.000
197.73	-0.000
198.20	-0.000
198.67	-0.000
199.14	-0.000
199.62	-0.000
200.09	-0.000
200.56	-0.000
201.03	-0.000
201.50	1.030
201.97	-0.000
202.45	1.999
202.92	1.001
203.39	-0.000
203.86	-0.000
204.33	1.890
204.80	1.680
205.28	-0.000
205.75	-0.000
206.22	-0.000
206.69	1.467
207.16	-0.000
207.63	1.209
208.11	0.656
208.58	-0.000
209.05	-0.000
209.52	1.457
209.99	-0.000
210.46	1.316
210.93	-0.000
211.41	-0.000
211.88	1.659
212.35	-0.000
212.82	-0.000
213.29	1.640
213.76	-0.000
214.23	-0.000
214.70	-0.000
215.18	-0.000
215.65	1.567
216.12	1.298
216.59	-0.000
217.06	1.462
217.53	-0.000
218.00	1.285
218.47	0.837
218.94	-0.000
219.41	1.373
219.89	-0.000
220.36	-0.000
220.83	-0.000
221.30	1.780
221.77	-0.000
222.24	1.139
222.71	-0.000
223.18	-0.000
223.65	1.240
224.12	-0.000
224.59	-0.000
225.06	1.513
225.54	1.754
226.01	1.693
226.48	-0.000
226.95	-0.000
227.42	-0.000
227.89	-0.000
228.36	1.762
228.83	2.920
229.30	-0.000
229.77	-0.000
230.24	1.527
230.71	-0.000
231.18	-0.000
231.65	2.572
232.12	2.327
232.59	2.175
233.06	-0.000
233.53	2.547
234.00	2.147
234.47	2.695
234.94	-0.000
235.41	2.162
235.88	-0.000
236.35	4.151
236.82	2.409
237.29	2.848
237.76	-0.000
238.23	2.604
238.70	2.879
239.17	2.200
239.64	2.755
240.11	-0.000
240.58	2.734
241.05	-0.000
241.52	3.220
241.99	2.876
242.46	3.151
242.93	2.985
243.40	2.685
243.87	2.559
244.34	2.537
244.81	-0.000
245.28	-0.000
245.75	2.710
246.22	-0.000
246.69	-0.000
247.16	2.861
247.63	3.988
248.10	2.907
248.57	-0.000
249.04	-0.000
249.51	4.103
249.98	-0.000
250.45	-0.000
250.92	3.430
251.39	-0.000
251.85	-0.000
252.32	-0.000
252.79	-0.000
253.26	-0.000
253.73	-0.000
254.20	2.848
254.67	2.823
255.14	3.218
255.61	3.512
256.08	-0.000
256.55	-0.000
257.02	2.946
257.49	3.261
257.95	3.343
258.42	3.037
258.89	2.878
259.36	3.643
259.83	3.219
260.30	2.960
260.77	3.453
261.24	2.990
261.71	3.656
262.17	3.298
262.64	2.641
263.11	3.495
263.58	3.173
264.05	2.811
264.52	2.899
264.99	3.024
265.46	2.750
265.92	3.010
266.39	2.587
266.86	3.113
267.33	2.744
267.80	2.540
268.27	3.363
268.74	2.716
269.20	2.889
269.67	2.760
270.14	2.624
270.61	2.560
271.08	2.676
271.55	2.429
272.01	2.565
272.48	2.520
272.95	2.445
273.42	2.558
273.89	2.641
274.36	2.451
274.82	2.384
275.29	2.481
275.76	2.358
276.23	2.387
276.70	2.426
277.16	2.350
277.63	2.384
278.10	2.276
278.57	2.335
279.04	2.346
279.50	2.305
279.97	2.349
280.44	2.247
280.91	2.180
281.38	2.236
281.84	2.243
282.31	2.337
282.78	2.332
283.25	2.188
283.72	2.203
284.18	2.182
284.65	2.140
285.12	2.176
285.59	2.144
286.05	2.150
286.52	2.136
286.99	2.115
287.46	2.103
287.92	2.117
288.39	2.050
288.86	2.119
289.33	2.063
289.79	2.039
290.26	2.104
290.73	2.048
291.20	2.011
291.66	2.085
292.13	2.048
292.60	2.017
293.07	2.009
293.53	1.975
294.00	1.986
294.47	1.994
294.93	1.954
295.40	1.983
295.87	1.934
296.34	1.936
296.80	1.939
297.27	1.918
297.74	1.883
298.20	1.932
298.67	1.887
299.14	1.922
299.60	1.904
300.07	1.859
300.54	1.870
301.01	1.890
301.47	1.826
301.94	1.847
302.41	1.853
302.87	1.830
303.34	1.879
303.81	1.811
304.27	1.809
304.74	1.809
305.21	1.770
305.67	1.824
306.14	1.767
306.61	1.780
307.07	1.758
307.54	1.765
308.01	1.780
308.47	1.754
308.94	1.746
309.40	1.748
309.87	1.723
310.34	1.718
310.80	1.755
311.27	1.735
311.74	1.689
312.20	1.719
312.67	1.717
313.13	1.675
313.60	1.694
314.07	1.695
314.53	1.662
315.00	1.658
315.47	1.662
315.93	1.656
316.40	1.632
316.86	1.624
317.33	1.620
317.80	1.635
318.26	1.631
318.73	1.626
319.19	1.626
319.66	1.592
320.13	1.605
320.59	1.595
321.06	1.613
321.52	1.594
321.99	1.575
322.45	1.590
322.92	1.549
323.39	1.557
323.85	1.572
324.32	1.562
324.78	1.551
325.25	1.566
325.71	1.527
326.18	1.519
326.64	1.553
327.11	1.523
327.58	1.518
328.04	1.502
328.51	1.513
328.97	1.498
329.44	1.489
329.90	1.461
330.37	1.472
330.83	1.449
331.30	1.448
331.76	1.449
332.23	1.425
332.69	1.426
333.16	1.399
333.62	1.403
334.09	1.406
334.56	1.383
335.02	1.372
335.49	1.360
335.95	1.343
336.42	1.339
336.88	1.326
337.35	1.307
337.81	1.313
338.28	1.285
338.74	1.287
339.20	1.286
339.67	1.259
340.13	1.243
340.60	1.240
341.06	1.203
341.53	1.197
341.99	1.194
342.46	1.168
342.92	1.155
343.39	1.140
343.85	1.129
344.32	1.119
344.78	1.102
345.25	1.086
345.71	1.074
346.17	1.064
346.64	1.054
347.10	1.028
347.57	1.010
348.03	0.989
348.50	0.969
348.96	0.950
349.43	0.952
349.89	0.926
350.35	0.910
350.82	0.910
351.28	0.890
351.75	0.878
352.21	0.864
352.67	0.851
353.14	0.842
353.60	0.835
354.07	0.814
354.53	0.801
355.00	0.785
355.46	0.780
355.92	0.770
356.39	0.758
356.85	0.744
357.31	0.739
357.78	0.731
358.24	0.720
358.71	0.711
359.17	0.704
359.63	0.702
360.10	0.696
360.56	0.686
361.03	0.685
361.49	0.675
361.95	0.671
362.42	0.669
362.88	0.666
363.34	0.653
363.81	0.653
364.27	0.650
364.73	0.644
365.20	0.641
365.66	0.636
366.12	0.637
366.59	0.631
367.05	0.629
367.51	0.629
367.98	0.623
368.44	0.617
368.90	0.618
369.37	0.618
369.83	0.613
370.29	0.612
370.76	0.607
371.22	0.613
371.68	0.604
372.15	0.599
372.61	0.600
373.07	0.599
373.54	0.591
374.00	0.597
374.46	0.587
374.92	0.592
375.39	0.589
375.85	0.584
376.31	0.589
376.78	0.584
377.24	0.580
377.70	0.581
378.16	0.573
378.63	0.570
379.09	0.573
379.55	0.569
380.01	0.575
380.48	0.568
380.94	0.566
381.40	0.562
381.87	0.562
382.33	0.558
382.79	0.559
383.25	0.556
383.72	0.556
384.18	0.553
384.64	0.549
385.10	0.549
385.56	0.553
386.03	0.547
386.49	0.544
386.95	0.540
387.41	0.541
387.88	0.542
388.34	0.538
388.80	0.532
389.26	0.535
389.72	0.532
390.19	0.531
390.65	0.529
391.11	0.526
391.57	0.529
392.04	0.527
392.50	0.523
392.96	0.523
393.42	0.521
393.88	0.521
394.34	0.518
394.81	0.516
395.27	0.512
395.73	0.516
396.19	0.511
396.65	0.511
397.12	0.509
397.58	0.506
398.04	0.509
398.50	0.505
398.96	0.503
399.42	0.505
399.89	0.502
400.35	0.499
400.81	0.497
401.27	0.497
401.73	0.496
402.19	0.492
402.65	0.491
403.12	0.489
403.58	0.491
404.04	0.490
404.50	0.490
404.96	0.485
405.42	0.484
405.88	0.483
406.34	0.485
406.81	0.483
407.27	0.480
407.73	0.477
408.19	0.477
408.65	0.477
409.11	0.473
409.57	0.480
410.03	0.473
410.49	0.470
410.96	0.469
411.42	0.469
411.88	0.466
412.34	0.464
412.80	0.465
413.26	0.463
413.72	0.462
414.18	0.459
414.64	0.458
415.10	0.460
415.56	0.458
416.02	0.461
416.48	0.455
416.95	0.455
417.41	0.454
417.87	0.454
418.33	0.453
418.79	0.449
419.25	0.447
419.71	0.449
420.17	0.446
420.63	0.442
421.09	0.442
421.55	0.441
422.01	0.439
422.47	0.446
422.93	0.443
423.39	0.439
423.85	0.443
424.31	0.437
424.77	0.436
425.23	0.435
425.69	0.439
426.15	0.435
426.61	0.432
427.07	0.428
427.53	0.429
427.99	0.427
428.45	0.431
428.91	0.427
429.37	0.422
429.83	0.425
430.29	0.419
430.75	0.425
431.21	0.424
431.67	0.421
432.13	0.418
432.59	0.418
433.05	0.419
433.51	0.416
433.97	0.415
434.43	0.415
434.89	0.418
435.35	0.413
435.81	0.413
436.27	0.409
436.73	0.407
437.19	0.404
437.65	0.410
438.11	0.406
438.57	0.407
439.03	0.406
439.48	0.400
439.94	0.402
440.40	0.405
440.86	0.401
441.32	0.399
441.78	0.402
442.24	0.394
442.70	0.398
443.16	0.394
443.62	0.392
444.08	0.392
444.54	0.392
444.99	0.396
445.45	0.391
445.91	0.387
446.37	0.392
446.83	0.390
447.29	0.386
447.75	0.390
448.21	0.390
448.67	0.386
449.12	0.385
449.58	0.387
450.04	0.383
450.50	0.381
450.96	0.382
451.42	0.381
451.88	0.381
452.34	0.378
452.79	0.378
453.25	0.378
453.71	0.376
454.17	0.375
454.63	0.376
455.09	0.374
455.55	0.372
456.00	0.368
456.46	0.368
456.92	0.370
457.38	0.369
457.84	0.369
458.30	0.364
458.75	0.365
459.21	0.363
459.67	0.366
460.13	0.365
460.59	0.363
461.04	0.361
461.50	0.361
461.96	0.360
462.42	0.359
462.88	0.358
463.33	0.357
463.79	0.355
464.25	0.357
464.71	0.357
465.17	0.357
465.62	0.355
466.08	0.357
466.54	0.356
467.00	0.355
467.46	0.355
467.91	0.352
468.37	0.351
468.83	0.349
469.29	0.348
469.74	0.347
470.20	0.349
470.66	0.347
471.12	0.346
471.57	0.347
472.03	0.343
472.49	0.345
472.95	0.347
473.40	0.343
473.86	0.340
474.32	0.340
474.78	0.341
475.23	0.340
475.69	0.342
476.15	0.339
476.60	0.342
477.06	0.338
477.52	0.335
477.98	0.335
478.43	0.335
478.89	0.332
479.35	0.334
479.80	0.335
480.26	0.330
480.72	0.334
481.18	0.331
481.63	0.331
482.09	0.331
482.55	0.326
483.00	0.328
483.46	0.326
483.92	0.325
484.37	0.326
484.83	0.325
485.29	0.324
485.74	0.324
486.20	0.326
486.66	0.322
487.11	0.319
487.57	0.321
488.03	0.321
488.48	0.320
488.94	0.318
489.40	0.317
489.85	0.319
490.31	0.318
490.77	0.320
491.22	0.317
491.68	0.313
492.13	0.315
492.59	0.313
493.05	0.314
493.50	0.314
493.96	0.314
494.42	0.312
494.87	0.311
495.33	0.309
495.78	0.312
496.24	0.312
496.70	0.310
497.15	0.309
497.61	0.310
498.06	0.307
498.52	0.305
498.98	0.305
499.43	0.306
499.89	0.305
500.34	0.305
500.80	0.304
501.25	0.305
501.71	0.301
502.17	0.304
502.62	0.303
503.08	0.301
503.53	0.299
503.99	0.301
504.44	0.300
504.90	0.299
505.36	0.295
505.81	0.298
506.27	0.299
506.72	0.299
507.18	0.298
507.63	0.293
508.09	0.297
508.54	0.293
509.00	0.292
509.45	0.295
509.91	0.295
510.36	0.293
510.82	0.292
511.27	0.291
511.73	0.291
512.19	0.289
512.64	0.288
513.10	0.287
513.55	0.289
514.01	0.287
514.46	0.288
514.92	0.284
515.37	0.286
515.83	0.285
516.28	0.282
516.73	0.283
517.19	0.283
517.64	0.282
518.10	0.282
518.55	0.284
519.01	0.281
519.46	0.284
519.92	0.281
520.37	0.275
520.83	0.279
521.28	0.278
521.74	0.279
522.19	0.279
522.65	0.278
523.10	0.277
523.55	0.276
524.01	0.277
524.46	0.275
524.92	0.276
525.37	0.275
525.83	0.274
526.28	0.273
526.73	0.274
527.19	0.273
527.64	0.274
528.10	0.272
528.55	0.273
529.01	0.273
529.46	0.271
529.91	0.270
530.37	0.270
530.82	0.271
531.28	0.267
531.73	0.267
532.18	0.267
532.64	0.269
533.09	0.267
533.54	0.266
534.00	0.264
534.45	0.269
534.91	0.267
535.36	0.266
535.81	0.265
536.27	0.264
536.72	0.264
537.17	0.263
537.63	0.262
538.08	0.259
538.54	0.263
538.99	0.257
539.44	0.261
539.90	0.259
540.35	0.260
540.80	0.259
541.26	0.257
541.71	0.258
542.16	0.258
542.62	0.257
543.07	0.257
543.52	0.256
543.98	0.258
544.43	0.255
544.88	0.256
545.34	0.255
545.79	0.255
546.24	0.254
546.69	0.256
547.15	0.252
547.60	0.252
548.05	0.255
548.51	0.250
548.96	0.251
549.41	0.254
549.86	0.251
550.32	0.251
550.77	0.253
551.22	0.249
551.68	0.248
552.13	0.249
552.58	0.247
553.03	0.247
553.49	0.247
553.94	0.248
554.39	0.246
554.84	0.247
555.30	0.246
555.75	0.245
556.20	0.246
556.65	0.243
557.11	0.245
557.56	0.243
558.01	0.246
558.46	0.246
558.92	0.242
559.37	0.241
559.82	0.242
560.27	0.242
560.72	0.240
561.18	0.240
561.63	0.241
562.08	0.239
562.53	0.242
562.99	0.240
563.44	0.238
563.89	0.238
564.34	0.238
564.79	0.239
565.25	0.237
565.70	0.236
566.15	0.234
566.60	0.235
567.05	0.236
567.50	0.235
567.96	0.235
568.41	0.236
568.86	0.234
569.31	0.232
569.76	0.234
570.21	0.233
570.67	0.233
571.12	0.232
571.57	0.231
572.02	0.231
572.47	0.231
572.92	0.229
573.37	0.229
573.83	0.228
574.28	0.229
574.73	0.229
575.18	0.228
575.63	0.231
576.08	0.224
576.53	0.228
576.98	0.226
577.44	0.224
577.89	0.225
578.34	0.224
578.79	0.223
579.24	0.223
579.69	0.223
580.14	0.222
580.59	0.222
581.04	0.220
581.49	0.220
581.95	0.222
582.40	0.220
582.85	0.220
583.30	0.220
583.75	0.219
584.20	0.218
584.65	0.220
585.10	0.218
585.55	0.219
586.00	0.219
586.45	0.218
586.90	0.218
587.35	0.218
587.80	0.217
588.25	0.216
588.71	0.216
589.16	0.216
589.61	0.216
590.06	0.215
590.51	0.216
590.96	0.215
591.41	0.214
591.86	0.214
592.31	0.214
592.76	0.216
593.21	0.214
593.66	0.214
594.11	0.213
594.56	0.212
595.01	0.215
595.46	0.212
595.91	0.213
596.36	0.211
596.81	0.210
597.26	0.210
597.71	0.209
598.16	0.209
598.61	0.211
599.06	0.210
599.51	0.212
599.96	0.211
600.41	0.210
600.86	0.210
601.31	0.210
601.76	0.209
602.21	0.208
602.65	0.207
603.10	0.208
603.55	0.206
604.00	0.207
604.45	0.207
604.90	0.207
605.35	0.206
605.80	0.206
606.25	0.208
606.70	0.205
607.15	0.207
607.60	0.205
608.05	0.204
608.50	0.204
608.95	0.201
609.39	0.204
609.84	0.205
610.29	0.202
610.74	0.202
611.19	0.202
611.64	0.202
612.09	0.202
612.54	0.200
612.99	0.202
613.44	0.199
613.88	0.201
614.33	0.200
614.78	0.199
615.23	0.200
615.68	0.198
616.13	0.199
616.58	0.198
617.03	0.198
617.47	0.198
617.92	0.198
618.37	0.197
618.82	0.197
619.27	0.198
619.72	0.196
620.17	0.194
620.61	0.194
621.06	0.195
621.51	0.195
621.96	0.194
622.41	0.196
622.86	0.192
623.30	0.195
623.75	0.195
624.20	0.194
624.65	0.192
625.10	0.193
625.54	0.192
625.99	0.193
626.44	0.192
626.89	0.193
627.34	0.193
627.78	0.189
628.23	0.190
628.68	0.189
629.13	0.191
629.58	0.191
630.02	0.188
630.47	0.190
630.92	0.190
631.37	0.187
631.81	0.189
632.26	0.187
632.71	0.188
633.16	0.188
633.61	0.189
634.05	0.186
634.50	0.185
634.95	0.186
635.40	0.187
635.84	0.187
636.29	0.185
636.74	0.187
637.18	0.187
637.63	0.187
638.08	0.185
638.53	0.186
638.97	0.184
639.42	0.185
639.87	0.186
640.32	0.184
640.76	0.184
641.21	0.184
641.66	0.184
642.10	0.185
642.55	0.182
643.00	0.182
643.44	0.182
643.89	0.183
644.34	0.181
644.79	0.182
645.23	0.181
645.68	0.182
646.13	0.181
646.57	0.183
647.02	0.181
647.47	0.183
647.91	0.183
648.36	0.179
648.81	0.180
649.25	0.179
649.70	0.179
650.15	0.178
650.59	0.180
651.04	0.178
651.48	0.180
651.93	0.180
652.38	0.176
652.82	0.178
653.27	0.176
653.72	0.180
654.16	0.176
654.61	0.178
655.06	0.178
655.50	0.174
655.95	0.173
656.39	0.171
656.84	0.172
657.29	0.176
657.73	0.175
658.18	0.175
658.62	0.174
659.07	0.175
659.52	0.174
659.96	0.176
660.41	0.175
660.85	0.173
661.30	0.174
661.74	0.175
662.19	0.173
662.64	0.172
663.08	0.173
663.53	0.173
663.97	0.172
664.42	0.172
664.86	0.174
665.31	0.174
665.75	0.170
666.20	0.172
666.65	0.173
667.09	0.171
667.54	0.172
667.98	0.172
668.43	0.171
668.87	0.170
669.32	0.172
669.76	0.169
670.21	0.170
670.65	0.167
671.10	0.170
671.54	0.169
671.99	0.168
672.43	0.169
672.88	0.168
673.32	0.169
673.77	0.168
674.21	0.166
674.66	0.165
675.10	0.168
675.55	0.164
675.99	0.167
676.44	0.167
676.88	0.166
677.33	0.167
677.77	0.166
678.22	0.166
678.66	0.165
679.11	0.165
679.55	0.165
679.99	0.163
680.44	0.165
680.88	0.165
681.33	0.164
681.77	0.164
682.22	0.164
682.66	0.164
683.11	0.163
683.55	0.164
683.99	0.163
684.44	0.162
684.88	0.162
685.33	0.164
685.77	0.161
686.21	0.162
686.66	0.162
687.10	0.161
687.55	0.160
687.99	0.162
688.44	0.162
688.88	0.160
689.32	0.161
689.77	0.159
690.21	0.159
690.65	0.158
691.10	0.162
691.54	0.158
691.99	0.158
692.43	0.159
692.87	0.158
693.32	0.160
693.76	0.159
694.20	0.158
694.65	0.157
695.09	0.160
695.53	0.157
695.98	0.159
696.42	0.159
696.86	0.157
697.31	0.156
697.75	0.157
698.19	0.157
698.64	0.156
699.08	0.157
699.52	0.156
699.97	0.158
700.41	0.155
700.85	0.156
701.30	0.156
701.74	0.155
702.18	0.155
702.63	0.155
703.07	0.155
703.51	0.155
703.96	0.153
704.40	0.155
704.84	0.157
705.28	0.154
705.73	0.156
706.17	0.155
706.61	0.153
707.06	0.153
707.50	0.153
707.94	0.154
708.38	0.152
708.83	0.154
709.27	0.155
709.71	0.154
710.15	0.152
710.60	0.151
711.04	0.152
711.48	0.155
711.92	0.155
712.37	0.153
712.81	0.154
713.25	0.151
713.69	0.153
714.13	0.155
714.58	0.154
715.02	0.151
715.46	0.151
715.90	0.150
716.35	0.151
716.79	0.153
717.23	0.152
717.67	0.153
718.11	0.153
718.56	0.151
719.00	0.152
719.44	0.152
719.88	0.152
720.32	0.150
720.76	0.151
721.21	0.150
721.65	0.150
722.09	0.152
722.53	0.151
722.97	0.151
723.41	0.149
723.86	0.151
724.30	0.152
724.74	0.152
725.18	0.151
725.62	0.149
726.06	0.152
726.50	0.149
726.95	0.147
727.39	0.151
727.83	0.150
728.27	0.151
728.71	0.151
729.15	0.150
729.59	0.149
730.03	0.149
730.48	0.148
730.92	0.148
731.36	0.151
731.80	0.151
732.24	0.152
732.68	0.148
733.12	0.146
733.56	0.149
734.00	0.151
734.44	0.151
734.89	0.151
735.33	0.151
735.77	0.153
736.21	0.153
736.65	0.146
737.09	0.151
737.53	0.151
737.97	0.153
738.41	0.152
738.85	0.153
739.29	0.152
739.73	0.148
740.17	0.150
740.61	0.149
741.05	0.152
741.49	0.151
741.93	0.149
742.37	0.145
742.81	0.150
743.26	0.151
743.70	0.149
744.14	0.148
744.58	0.149
745.02	0.149
745.46	0.149
745.90	0.148
746.34	0.149
746.78	0.148
747.22	0.149
747.66	0.150
748.10	0.147
748.54	0.146
748.98	0.146
749.42	0.147
749.86	0.148
750.29	0.148
750.73	0.146
751.17	0.148
751.61	0.145
752.05	0.150
752.49	0.146
752.93	0.146
753.37	0.145
753.81	0.145
754.25	0.144
754.69	0.146
755.13	0.144
755.57	0.146
756.01	0.145
756.45	0.146
756.89	0.146
757.33	0.144
757.77	0.147
758.21	0.142
758.64	0.143
759.08	0.139
759.52	0.144
759.96	0.146
760.40	0.144
760.84	0.141
761.28	0.143
761.72	0.144
762.16	0.143
762.60	0.141
763.03	0.141
763.47	0.143
763.91	0.143
764.35	0.140
764.79	0.140
765.23	0.139
765.67	0.143
766.11	0.139
766.54	0.139
766.98	0.143
767.42	0.142
767.86	0.140
768.30	0.141
768.74	0.142
769.17	0.143
769.61	0.143
770.05	0.141
770.49	0.142
770.93	0.142
771.37	0.139
771.80	0.142
772.24	0.143
772.68	0.139
773.12	0.137
773.56	0.140
774.00	0.139
774.43	0.137
774.87	0.137
775.31	0.136
775.75	0.139
776.19	0.138
776.62	0.137
777.06	0.136
777.50	0.140
777.94	0.135
778.37	0.136
778.81	0.136
779.25	0.139
779.69	0.139
780.13	0.140
780.56	0.137
781.00	0.139
781.44	0.138
781.88	0.136
782.31	0.133
782.75	0.137
783.19	0.136
783.63	0.135
784.06	0.135
784.50	0.136
784.94	0.138
785.37	0.136
785.81	0.139
786.25	0.138
786.69	0.135
787.12	0.135
787.56	0.135
788.00	0.138
788.43	0.139
788.87	0.136
789.31	0.138
789.75	0.137
790.18	0.132
790.62	0.137
791.06	0.133
791.49	0.130
791.93	0.133
792.37	0.137
792.80	0.134
793.24	0.132
793.68	0.135
794.11	0.134
794.55	0.135
794.99	0.135
795.42	0.138
795.86	0.137
796.30	0.135
796.73	0.133
797.17	0.134
797.61	0.129
798.04	0.130
798.48	0.130
798.91	0.134
799.35	0.131
799.79	0.134
800.22	0.134
800.66	0.130
801.10	0.132
801.53	0.133
801.97	0.135
802.40	0.134
802.84	0.130
803.28	0.130
803.71	0.132
804.15	0.134
804.58	0.134
805.02	0.134
805.46	0.132
805.89	0.132
806.33	0.134
806.76	0.128
807.20	0.130
807.63	0.130
808.07	0.134
808.51	0.127
808.94	0.130
809.38	0.129
809.81	0.132
810.25	0.135
810.68	0.132
811.12	0.132
811.55	0.128
811.99	0.130
812.42	0.133
812.86	0.130
813.29	0.127
813.73	0.128
814.17	0.128
814.60	0.133
815.04	0.128
815.47	0.129
815.91	0.129
816.34	0.131
816.78	0.126
817.21	0.136
817.65	0.133
818.08	0.126
818.52	0.132
818.95	0.128
819.39	0.132
819.82	0.128
820.25	0.125
820.69	0.129
821.12	0.130
821.56	0.130
821.99	0.129
822.43	0.130
822.86	0.134
823.30	0.134
823.73	0.128
824.17	0.131
824.60	0.127
825.04	0.129
825.47	0.131
825.90	0.129
826.34	0.130
826.77	0.130
827.21	0.132
827.64	0.133
828.08	0.132
828.51	0.128
828.94	0.129
829.38	0.130
829.81	0.131
830.25	0.135
830.68	0.135
831.11	0.129
831.55	0.132
831.98	0.132
832.42	0.131
832.85	0.131
833.28	0.135
833.72	0.134
834.15	0.133
834.58	0.133
835.02	0.132
835.45	0.132
835.88	0.132
836.32	0.136
836.75	0.134
837.19	0.135
837.62	0.139
838.05	0.138
838.49	0.135
838.92	0.134
839.35	0.133
839.79	0.133
840.22	0.133
840.65	0.131
841.09	0.137
841.52	0.131
841.95	0.130
842.39	0.133
842.82	0.134
843.25	0.130
843.68	0.134
844.12	0.134
844.55	0.132
844.98	0.131
845.42	0.131
845.85	0.130
846.28	0.134
846.71	0.130
847.15	0.135
847.58	0.139
848.01	0.135
848.45	0.137
848.88	0.137
849.31	0.134
849.74	0.133
850.18	0.133
850.61	0.138
851.04	0.138
851.47	0.134
851.91	0.137
852.34	0.136
852.77	0.137
853.20	0.133
853.64	0.130
854.07	0.134
854.50	0.132
854.93	0.135
855.36	0.132
855.80	0.130
856.23	0.127
856.66	0.138
857.09	0.136
857.52	0.128
857.96	0.127
858.39	0.135
858.82	0.130
859.25	0.135
859.68	0.131
860.12	0.130
860.55	0.131
860.98	0.135
861.41	0.132
861.84	0.137
862.27	0.130
862.71	0.133
863.14	0.134
863.57	0.129
864.00	0.129
864.43	0.132
864.86	0.134
865.30	0.139
865.73	0.134
866.16	0.139
866.59	0.136
867.02	0.132
867.45	0.135
867.88	0.133
868.31	0.136
868.75	0.138
869.18	0.137
869.61	0.138
870.04	0.138
870.47	0.133
870.90	0.138
871.33	0.137
871.76	0.139
872.19	0.140
872.62	0.131
873.06	0.130
873.49	0.140
873.92	0.140
874.35	0.134
874.78	0.134
875.21	0.133
875.64	0.136
876.07	0.138
876.50	0.133
876.93	0.135
877.36	0.136
877.79	0.134
878.22	0.135
878.65	0.137
879.08	0.132
879.51	0.135
879.94	0.134
880.37	0.143
880.80	0.140
881.23	0.128
881.67	0.141
882.10	0.138
882.53	0.134
882.96	0.138
883.39	0.135
883.82	0.136
884.25	0.138
884.68	0.133
885.11	0.135
885.54	0.137
885.97	0.138
886.39	0.132
886.82	0.136
887.25	0.137
887.68	0.140
888.11	0.139
888.54	0.135
888.97	0.136
889.40	0.140
889.83	0.137
890.26	0.138
890.69	0.139
891.12	0.135
891.55	0.140
891.98	0.131
892.41	0.134
892.84	0.134
893.27	0.137
893.70	0.138
894.13	0.137
894.56	0.141
894.98	0.144
895.41	0.137
895.84	0.142
896.27	0.138
896.70	0.139
897.13	0.137
897.56	0.137
897.99	0.136
898.42	0.136
898.85	0.142
899.27	0.139
899.70	0.142
900.13	0.138
900.56	0.142
900.99	0.140
901.42	0.141
901.85	0.139
902.28	0.139
902.70	0.139
903.13	0.139
903.56	0.141
903.99	0.135
904.42	0.139
904.85	0.144
905.27	0.140
905.70	0.141
906.13	0.138
906.56	0.139
906.99	0.142
907.42	0.138
907.84	0.137
908.27	0.140
908.70	0.142
909.13	0.140
909.56	0.139
909.98	0.140
910.41	0.138
910.84	0.141
911.27	0.140
911.70	0.136
912.12	0.135
912.55	0.141
912.98	0.142
913.41	0.139
913.84	0.142
914.26	0.135
914.69	0.143
915.12	0.140
915.55	0.139
915.97	0.139
916.40	0.140
916.83	0.136
917.26	0.141
917.68	0.139
918.11	0.139
918.54	0.138
918.97	0.138
919.39	0.137
919.82	0.140
920.25	0.137
920.67	0.137
921.10	0.143
921.53	0.144
921.96	0.144
922.38	0.141
922.81	0.140
923.24	0.147
923.66	0.141
924.09	0.143
924.52	0.148
924.94	0.146
925.37	0.146
925.80	0.148
926.22	0.143
926.65	0.145
927.08	0.150
927.50	0.144
927.93	0.152
928.36	0.144
928.78	0.147
929.21	0.148
929.64	0.150
930.06	0.155
930.49	0.151
930.92	0.151
931.34	0.153
931.77	0.154
932.20	0.154
932.62	0.151
933.05	0.154
933.47	0.161
933.90	0.159
934.33	0.155
934.75	0.159
935.18	0.161
935.61	0.160
936.03	0.166
936.46	0.165
936.88	0.165
937.31	0.166
937.73	0.170
938.16	0.163
938.59	0.169
939.01	0.177
939.44	0.176
939.86	0.177
940.29	0.172
940.71	0.180
941.14	0.185
941.57	0.177
941.99	0.182
942.42	0.185
942.84	0.193
943.27	0.195
943.69	0.187
944.12	0.196
944.54	0.204
944.97	0.194
945.39	0.199
945.82	0.194
946.24	0.205
946.67	0.197
947.09	0.212
947.52	0.205
947.94	0.205
948.37	0.211
948.79	0.213
949.22	0.215
949.64	0.210
950.07	0.223
950.49	0.223
950.92	0.224
951.34	0.224
951.77	0.229
952.19	0.231
952.62	0.239
953.04	0.238
953.47	0.243
953.89	0.244
954.32	0.245
954.74	0.248
955.17	0.249
955.59	0.255
956.01	0.257
956.44	0.259
956.86	0.255
957.29	0.268
957.71	0.269
958.14	0.267
958.56	0.271
958.98	0.275
959.41	0.280
959.83	0.272
960.26	0.275
960.68	0.284
961.10	0.282
961.53	0.279
961.95	0.282
962.38	0.277
962.80	0.281
963.22	0.288
963.65	0.284
964.07	0.283
964.50	0.293
964.92	0.284
965.34	0.299
965.77	0.288
966.19	0.295
966.61	0.292
967.04	0.298
967.46	0.292
967.88	0.299
968.31	0.289
968.73	0.298
969.15	0.291
969.58	0.285
970.00	0.296
970.42	0.293
970.85	0.286
971.27	0.296
971.69	0.292
972.12	0.297
972.54	0.301
972.96	0.295
973.39	0.304
973.81	0.297
974.23	0.296
974.65	0.297
975.08	0.300
975.50	0.298
975.92	0.298
976.35	0.298
976.77	0.296
977.19	0.303
977.61	0.298
978.04	0.292
978.46	0.303
978.88	0.300
979.30	0.306
979.73	0.295
980.15	0.301
980.57	0.302
980.99	0.302
981.42	0.303
981.84	0.303
982.26	0.300
982.68	0.298
983.11	0.297
983.53	0.292
983.95	0.299
984.37	0.292
984.79	0.296
985.22	0.300
985.64	0.296
986.06	0.292
986.48	0.295
986.90	0.296
987.33	0.287
987.75	0.294
988.17	0.292
988.59	0.288
989.01	0.288
989.43	0.284
989.86	0.293
990.28	0.289
990.70	0.285
991.12	0.293
991.54	0.288
991.96	0.285
992.39	0.290
992.81	0.283
993.23	0.287
993.65	0.281
994.07	0.275
994.49	0.276
994.91	0.280
995.34	0.271
995.76	0.279
996.18	0.281
996.60	0.274
997.02	0.285
997.44	0.272
997.86	0.276
998.28	0.275
998.70	0.272
999.12	0.275
999.55	0.275
999.97	0.270
1000.39	0.274
1000.81	0.274
1001.23	0.273
1001.65	0.276
1002.07	0.269
1002.49	0.276
1002.91	0.267
1003.33	0.264
1003.75	0.273
1004.17	0.263
1004.59	0.259
1005.01	0.261
1005.43	0.264
1005.85	0.257
1006.28	0.264
1006.70	0.261
1007.12	0.259
1007.54	0.253
1007.96	0.249
1008.38	0.260
1008.80	0.254
1009.22	0.246
1009.64	0.252
1010.06	0.252
1010.48	0.255
1010.90	0.259
1011.32	0.240
1011.74	0.242
1012.16	0.254
1012.58	0.246
1013.00	0.247
1013.42	0.241
1013.84	0.235
1014.26	0.249
1014.67	0.245
1015.09	0.239
1015.51	0.245
1015.93	0.242
1016.35	0.234
1016.77	0.237
1017.19	0.230
1017.61	0.245
1018.03	0.238
1018.45	0.231
1018.87	0.245
1019.29	0.243
1019.71	0.226
1020.13	0.233
1020.55	0.230
1020.97	0.216
1021.38	0.227
1021.80	0.223
1022.22	0.230
1022.64	0.226
1023.06	0.220
1023.48	0.230
1023.90	0.217
1024.32	0.211
1024.74	0.216
1025.15	0.234
1025.57	0.216
1025.99	0.228
1026.41	0.221
1026.83	0.224
1027.25	0.221
1027.67	0.224
1028.08	0.221
1028.50	0.204
1028.92	0.218
1029.34	0.214
1029.76	0.224
1030.18	0.204
1030.60	0.231
1031.01	0.211
1031.43	0.212
1031.85	0.225
1032.27	0.219
1032.69	0.219
1033.10	0.214
1033.52	0.193
1033.94	0.217
1034.36	0.200
1034.78	0.205
1035.19	0.206
1035.61	0.207
1036.03	0.202
1036.45	0.193
1036.87	0.180
1037.28	0.201
1037.70	0.193
1038.12	0.194
1038.54	0.207
1038.95	0.186
1039.37	0.187
1039.79	0.210
1040.21	0.203
1040.62	0.199
1041.04	0.194
1041.46	0.195
1041.88	0.200
1042.29	0.196
1042.71	0.191
1043.13	0.220
1043.55	0.190
1043.96	0.182
1044.38	0.216
1044.80	0.198
1045.21	0.181
1045.63	0.193
1046.05	0.183
1046.47	0.202
1046.88	0.204
1047.30	0.188
1047.72	0.189
1048.13	0.167
1048.55	0.177
1048.97	0.203
1049.38	0.211
1049.80	0.173
1050.22	0.210
1050.63	0.178
1051.05	0.210
1051.47	0.193
1051.88	0.179
1052.30	0.203
1052.72	0.184
1053.13	0.171
1053.55	0.203
1053.97	0.195
1054.38	0.184
1054.80	0.227
1055.21	0.209
1055.63	0.211
1056.05	0.181
1056.46	0.180
1056.88	0.197
1057.29	0.186
1057.71	0.187
1058.13	0.222
1058.54	0.209
1058.96	0.172
1059.37	0.230
1059.79	0.229
1060.21	0.198
1060.62	0.202
1061.04	0.197
1061.45	0.242
1061.87	0.190
1062.28	0.197
1062.70	0.331
1063.12	0.182
1063.53	0.201
1063.95	0.236
1064.36	0.216
1064.78	0.195
1065.19	0.268
1065.61	0.215
1066.02	0.242
1066.44	0.288
1066.85	0.214
1067.27	0.349
1067.68	0.214
1068.10	0.162
1068.51	0.312
1068.93	0.291
1069.35	0.309
1069.76	0.304
1070.17	0.274
1070.59	0.305
1071.00	0.276
1071.42	0.188
1071.83	0.350
1072.25	0.456
1072.66	0.315
1073.08	0.511
1073.49	0.553
1073.91	0.284
1074.32	0.454
1074.74	0.333
1075.15	0.439
1075.57	0.193
1075.98	0.417
1076.40	0.398
1076.81	0.504
1077.22	0.238
1077.64	0.479
1078.05	0.359
1078.47	0.499
1078.88	2.331
1079.30	1.420
1079.71	-0.000
1080.12	1.796
1080.54	0.922
1080.95	-0.000
1081.37	1.134
1081.78	0.250
1082.19	0.692
1082.61	-0.000
1083.02	0.914
1083.44	1.270
1083.85	1.318
1084.26	-0.000
1084.68	-0.000
1085.09	0.504
1085.50	-0.000
1085.92	-0.000
1086.33	0.764
1086.74	-0.000
1087.16	-0.000
1087.57	-0.000
1087.98	-0.000
1088.40	-0.000
1088.81	1.437
1089.22	-0.000
1089.64	0.869
1090.05	-0.000
1090.46	-0.000
1090.88	-0.000
1091.29	-0.000
1091.70	-0.000
1092.12	0.703
1092.53	-0.000
1092.94	-0.000
1093.36	-0.000
1093.77	-0.000
1094.18	-0.000
1094.59	-0.000
1095.01	-0.000
1095.42	-0.000
1095.83	-0.000
1096.25	-0.000
1096.66	1.598
1097.07	-0.000
1097.48	-0.000
1097.90	-0.000
1098.31	-0.000
1098.72	-0.000
1099.13	-0.000
>>>>>End Processed Spectral Data<<<<<
