SpectraSuite Data File
++++++++++++++++++++++++++++++++++++
Date: Sun Apr 24 13:40:10 CEST 2016
User: spectrasuite
Dark Spectrum Present: Yes
Reference Spectrum Present: Yes
Number of Sampled Component Spectra: 1
Spectrometers: HR+C0708
Integration Time (usec): 1000 (HR+C0708)
Spectra Averaged: 10 (HR+C0708)
Boxcar Smoothing: 0 (HR+C0708)
Correct for Electrical Dark: No (HR+C0708)
Strobe/Lamp Enabled: No (HR+C0708)
Correct for Detector Non-linearity: No (HR+C0708)
Correct for Stray Light: No (HR+C0708)
Number of Pixels in Processed Spectrum: 2048
>>>>>Begin Processed Spectral Data<<<<<
188.76	-0.000
189.23	-0.000
189.70	-0.000
190.17	-0.000
190.64	-0.000
191.12	-0.000
191.59	-0.000
192.06	-0.000
192.53	-0.000
193.01	-0.000
193.48	-0.000
193.95	-0.000
194.42	-0.000
194.90	0.989
195.37	-0.000
195.84	-0.000
196.31	-0.000
196.78	-0.000
197.26	-0.000
197.73	-0.000
198.20	0.915
198.67	-0.000
199.14	1.270
199.62	-0.000
200.09	1.618
200.56	-0.000
201.03	-0.000
201.50	0.750
201.97	0.752
202.45	1.283
202.92	0.603
203.39	0.688
203.86	1.041
204.33	2.191
204.80	1.476
205.28	1.175
205.75	-0.000
206.22	-0.000
206.69	1.291
207.16	0.855
207.63	0.648
208.11	0.476
208.58	0.828
209.05	0.893
209.52	1.566
209.99	1.242
210.46	1.333
210.93	-0.000
211.41	0.901
211.88	0.751
212.35	1.218
212.82	1.484
213.29	0.806
213.76	1.010
214.23	1.355
214.70	1.303
215.18	0.869
215.65	0.789
216.12	0.854
216.59	1.108
217.06	0.740
217.53	0.815
218.00	1.077
218.47	1.016
218.94	0.995
219.41	0.908
219.89	1.369
220.36	1.300
220.83	1.042
221.30	1.428
221.77	2.160
222.24	1.190
222.71	2.545
223.18	1.900
223.65	1.124
224.12	-0.000
224.59	-0.000
225.06	1.540
225.54	1.099
226.01	1.112
226.48	1.341
226.95	1.777
227.42	1.128
227.89	-0.000
228.36	1.241
228.83	1.611
229.30	1.708
229.77	1.554
230.24	1.604
230.71	2.003
231.18	2.030
231.65	1.815
232.12	1.609
232.59	1.785
233.06	2.133
233.53	2.102
234.00	1.885
234.47	1.963
234.94	2.233
235.41	2.059
235.88	2.040
236.35	2.344
236.82	2.319
237.29	2.082
237.76	2.553
238.23	2.187
238.70	2.513
239.17	2.237
239.64	2.316
240.11	2.718
240.58	2.305
241.05	2.782
241.52	2.818
241.99	-0.000
242.46	2.442
242.93	2.833
243.40	2.503
243.87	2.424
244.34	2.451
244.81	2.660
245.28	3.076
245.75	2.762
246.22	2.658
246.69	2.961
247.16	2.569
247.63	2.612
248.10	3.080
248.57	2.780
249.04	2.972
249.51	2.981
249.98	2.906
250.45	2.745
250.92	2.659
251.39	2.871
251.85	2.988
252.32	3.754
252.79	2.984
253.26	2.809
253.73	-0.000
254.20	2.927
254.67	2.601
255.14	2.733
255.61	3.256
256.08	2.605
256.55	2.875
257.02	3.007
257.49	2.930
257.95	3.356
258.42	3.355
258.89	2.700
259.36	2.705
259.83	3.472
260.30	3.734
260.77	3.376
261.24	3.110
261.71	3.413
262.17	3.317
262.64	2.889
263.11	2.796
263.58	3.356
264.05	3.008
264.52	2.933
264.99	2.885
265.46	3.051
265.92	3.381
266.39	2.870
266.86	3.225
267.33	3.405
267.80	2.706
268.27	3.117
268.74	3.096
269.20	3.352
269.67	3.063
270.14	2.821
270.61	2.854
271.08	3.050
271.55	2.849
272.01	2.755
272.48	2.889
272.95	2.865
273.42	3.056
273.89	2.837
274.36	2.789
274.82	2.640
275.29	2.776
275.76	2.744
276.23	2.792
276.70	2.778
277.16	2.686
277.63	2.747
278.10	2.696
278.57	2.541
279.04	2.808
279.50	2.698
279.97	2.836
280.44	2.560
280.91	2.678
281.38	2.597
281.84	2.680
282.31	2.709
282.78	2.820
283.25	2.572
283.72	2.511
284.18	2.702
284.65	2.818
285.12	2.605
285.59	2.554
286.05	2.681
286.52	2.578
286.99	2.565
287.46	2.584
287.92	2.615
288.39	2.476
288.86	2.563
289.33	2.504
289.79	2.591
290.26	2.514
290.73	2.551
291.20	2.612
291.66	2.607
292.13	2.459
292.60	2.421
293.07	2.398
293.53	2.403
294.00	2.427
294.47	2.537
294.93	2.482
295.40	2.473
295.87	2.545
296.34	2.403
296.80	2.315
297.27	2.381
297.74	2.449
298.20	2.390
298.67	2.370
299.14	2.442
299.60	2.439
300.07	2.359
300.54	2.288
301.01	2.363
301.47	2.262
301.94	2.276
302.41	2.311
302.87	2.376
303.34	2.370
303.81	2.227
304.27	2.316
304.74	2.244
305.21	2.210
305.67	2.229
306.14	2.254
306.61	2.283
307.07	2.149
307.54	2.190
308.01	2.220
308.47	2.159
308.94	2.235
309.40	2.268
309.87	2.234
310.34	2.181
310.80	2.218
311.27	2.182
311.74	2.181
312.20	2.194
312.67	2.202
313.13	2.143
313.60	2.226
314.07	2.199
314.53	2.129
315.00	2.157
315.47	2.228
315.93	2.176
316.40	2.125
316.86	2.164
317.33	2.117
317.80	2.137
318.26	2.182
318.73	2.195
319.19	2.141
319.66	2.113
320.13	2.109
320.59	2.088
321.06	2.093
321.52	2.117
321.99	2.111
322.45	2.071
322.92	2.041
323.39	2.068
323.85	2.100
324.32	2.062
324.78	2.067
325.25	2.073
325.71	2.024
326.18	1.948
326.64	2.048
327.11	1.996
327.58	1.948
328.04	1.977
328.51	1.984
328.97	1.940
329.44	1.910
329.90	1.938
330.37	1.915
330.83	1.866
331.30	1.876
331.76	1.839
332.23	1.811
332.69	1.801
333.16	1.756
333.62	1.717
334.09	1.681
334.56	1.658
335.02	1.623
335.49	1.593
335.95	1.560
336.42	1.527
336.88	1.492
337.35	1.466
337.81	1.418
338.28	1.379
338.74	1.345
339.20	1.314
339.67	1.286
340.13	1.254
340.60	1.207
341.06	1.159
341.53	1.131
341.99	1.095
342.46	1.054
342.92	1.017
343.39	0.990
343.85	0.963
344.32	0.936
344.78	0.912
345.25	0.889
345.71	0.860
346.17	0.835
346.64	0.803
347.10	0.777
347.57	0.747
348.03	0.715
348.50	0.693
348.96	0.674
349.43	0.646
349.89	0.628
350.35	0.611
350.82	0.593
351.28	0.572
351.75	0.556
352.21	0.540
352.67	0.523
353.14	0.506
353.60	0.495
354.07	0.482
354.53	0.466
355.00	0.457
355.46	0.445
355.92	0.432
356.39	0.429
356.85	0.419
357.31	0.412
357.78	0.401
358.24	0.390
358.71	0.389
359.17	0.381
359.63	0.378
360.10	0.372
360.56	0.367
361.03	0.366
361.49	0.361
361.95	0.354
362.42	0.354
362.88	0.349
363.34	0.344
363.81	0.342
364.27	0.342
364.73	0.338
365.20	0.339
365.66	0.335
366.12	0.333
366.59	0.328
367.05	0.331
367.51	0.327
367.98	0.325
368.44	0.322
368.90	0.324
369.37	0.322
369.83	0.318
370.29	0.320
370.76	0.316
371.22	0.317
371.68	0.313
372.15	0.311
372.61	0.310
373.07	0.309
373.54	0.309
374.00	0.307
374.46	0.305
374.92	0.303
375.39	0.301
375.85	0.299
376.31	0.302
376.78	0.298
377.24	0.300
377.70	0.297
378.16	0.296
378.63	0.296
379.09	0.296
379.55	0.294
380.01	0.293
380.48	0.293
380.94	0.290
381.40	0.286
381.87	0.285
382.33	0.287
382.79	0.284
383.25	0.286
383.72	0.286
384.18	0.284
384.64	0.283
385.10	0.280
385.56	0.281
386.03	0.278
386.49	0.278
386.95	0.275
387.41	0.274
387.88	0.275
388.34	0.275
388.80	0.274
389.26	0.272
389.72	0.274
390.19	0.275
390.65	0.271
391.11	0.270
391.57	0.269
392.04	0.266
392.50	0.265
392.96	0.265
393.42	0.266
393.88	0.266
394.34	0.264
394.81	0.262
395.27	0.261
395.73	0.262
396.19	0.262
396.65	0.258
397.12	0.257
397.58	0.259
398.04	0.256
398.50	0.256
398.96	0.256
399.42	0.256
399.89	0.253
400.35	0.253
400.81	0.252
401.27	0.253
401.73	0.250
402.19	0.248
402.65	0.249
403.12	0.247
403.58	0.249
404.04	0.248
404.50	0.246
404.96	0.244
405.42	0.244
405.88	0.244
406.34	0.245
406.81	0.242
407.27	0.245
407.73	0.242
408.19	0.239
408.65	0.239
409.11	0.241
409.57	0.241
410.03	0.239
410.49	0.238
410.96	0.239
411.42	0.238
411.88	0.236
412.34	0.234
412.80	0.234
413.26	0.232
413.72	0.232
414.18	0.233
414.64	0.229
415.10	0.234
415.56	0.231
416.02	0.230
416.48	0.227
416.95	0.226
417.41	0.227
417.87	0.224
418.33	0.228
418.79	0.224
419.25	0.225
419.71	0.226
420.17	0.223
420.63	0.223
421.09	0.223
421.55	0.219
422.01	0.221
422.47	0.220
422.93	0.223
423.39	0.221
423.85	0.223
424.31	0.217
424.77	0.217
425.23	0.221
425.69	0.219
426.15	0.219
426.61	0.216
427.07	0.214
427.53	0.217
427.99	0.213
428.45	0.215
428.91	0.216
429.37	0.213
429.83	0.212
430.29	0.213
430.75	0.214
431.21	0.212
431.67	0.214
432.13	0.211
432.59	0.208
433.05	0.211
433.51	0.207
433.97	0.209
434.43	0.210
434.89	0.207
435.35	0.205
435.81	0.208
436.27	0.205
436.73	0.205
437.19	0.205
437.65	0.209
438.11	0.204
438.57	0.205
439.03	0.204
439.48	0.204
439.94	0.198
440.40	0.202
440.86	0.204
441.32	0.200
441.78	0.203
442.24	0.199
442.70	0.198
443.16	0.197
443.62	0.197
444.08	0.196
444.54	0.199
444.99	0.195
445.45	0.196
445.91	0.195
446.37	0.199
446.83	0.199
447.29	0.193
447.75	0.196
448.21	0.197
448.67	0.194
449.12	0.193
449.58	0.195
450.04	0.190
450.50	0.194
450.96	0.195
451.42	0.188
451.88	0.191
452.34	0.191
452.79	0.190
453.25	0.194
453.71	0.187
454.17	0.188
454.63	0.189
455.09	0.186
455.55	0.190
456.00	0.186
456.46	0.188
456.92	0.188
457.38	0.186
457.84	0.186
458.30	0.183
458.75	0.187
459.21	0.184
459.67	0.186
460.13	0.183
460.59	0.184
461.04	0.183
461.50	0.186
461.96	0.183
462.42	0.184
462.88	0.182
463.33	0.181
463.79	0.180
464.25	0.182
464.71	0.182
465.17	0.179
465.62	0.180
466.08	0.180
466.54	0.180
467.00	0.178
467.46	0.181
467.91	0.180
468.37	0.180
468.83	0.177
469.29	0.178
469.74	0.178
470.20	0.177
470.66	0.177
471.12	0.175
471.57	0.179
472.03	0.175
472.49	0.177
472.95	0.176
473.40	0.173
473.86	0.174
474.32	0.174
474.78	0.177
475.23	0.174
475.69	0.174
476.15	0.173
476.60	0.175
477.06	0.174
477.52	0.171
477.98	0.171
478.43	0.173
478.89	0.171
479.35	0.169
479.80	0.172
480.26	0.172
480.72	0.172
481.18	0.171
481.63	0.170
482.09	0.173
482.55	0.170
483.00	0.169
483.46	0.170
483.92	0.167
484.37	0.169
484.83	0.165
485.29	0.167
485.74	0.165
486.20	0.167
486.66	0.167
487.11	0.165
487.57	0.165
488.03	0.165
488.48	0.165
488.94	0.164
489.40	0.163
489.85	0.164
490.31	0.164
490.77	0.163
491.22	0.163
491.68	0.161
492.13	0.161
492.59	0.162
493.05	0.162
493.50	0.163
493.96	0.160
494.42	0.159
494.87	0.158
495.33	0.159
495.78	0.161
496.24	0.160
496.70	0.160
497.15	0.158
497.61	0.160
498.06	0.157
498.52	0.156
498.98	0.156
499.43	0.159
499.89	0.160
500.34	0.156
500.80	0.158
501.25	0.157
501.71	0.154
502.17	0.155
502.62	0.159
503.08	0.155
503.53	0.154
503.99	0.153
504.44	0.157
504.90	0.153
505.36	0.153
505.81	0.154
506.27	0.152
506.72	0.154
507.18	0.153
507.63	0.152
508.09	0.152
508.54	0.150
509.00	0.150
509.45	0.151
509.91	0.150
510.36	0.150
510.82	0.148
511.27	0.150
511.73	0.151
512.19	0.150
512.64	0.149
513.10	0.150
513.55	0.150
514.01	0.148
514.46	0.149
514.92	0.149
515.37	0.151
515.83	0.150
516.28	0.147
516.73	0.148
517.19	0.146
517.64	0.146
518.10	0.146
518.55	0.145
519.01	0.144
519.46	0.144
519.92	0.146
520.37	0.143
520.83	0.144
521.28	0.144
521.74	0.147
522.19	0.146
522.65	0.143
523.10	0.145
523.55	0.144
524.01	0.148
524.46	0.143
524.92	0.141
525.37	0.143
525.83	0.142
526.28	0.141
526.73	0.141
527.19	0.144
527.64	0.145
528.10	0.141
528.55	0.140
529.01	0.141
529.46	0.139
529.91	0.142
530.37	0.139
530.82	0.140
531.28	0.138
531.73	0.141
532.18	0.139
532.64	0.142
533.09	0.137
533.54	0.139
534.00	0.139
534.45	0.141
534.91	0.139
535.36	0.140
535.81	0.139
536.27	0.137
536.72	0.139
537.17	0.136
537.63	0.138
538.08	0.137
538.54	0.138
538.99	0.136
539.44	0.137
539.90	0.136
540.35	0.138
540.80	0.136
541.26	0.138
541.71	0.137
542.16	0.135
542.62	0.134
543.07	0.137
543.52	0.137
543.98	0.135
544.43	0.135
544.88	0.133
545.34	0.135
545.79	0.135
546.24	0.134
546.69	0.138
547.15	0.135
547.60	0.133
548.05	0.135
548.51	0.132
548.96	0.133
549.41	0.135
549.86	0.133
550.32	0.134
550.77	0.134
551.22	0.134
551.68	0.133
552.13	0.131
552.58	0.131
553.03	0.134
553.49	0.133
553.94	0.133
554.39	0.133
554.84	0.134
555.30	0.132
555.75	0.132
556.20	0.133
556.65	0.132
557.11	0.134
557.56	0.134
558.01	0.135
558.46	0.135
558.92	0.132
559.37	0.132
559.82	0.132
560.27	0.132
560.72	0.132
561.18	0.133
561.63	0.131
562.08	0.130
562.53	0.132
562.99	0.133
563.44	0.132
563.89	0.132
564.34	0.132
564.79	0.133
565.25	0.130
565.70	0.131
566.15	0.130
566.60	0.131
567.05	0.132
567.50	0.131
567.96	0.132
568.41	0.131
568.86	0.131
569.31	0.130
569.76	0.130
570.21	0.131
570.67	0.130
571.12	0.131
571.57	0.131
572.02	0.131
572.47	0.129
572.92	0.133
573.37	0.132
573.83	0.127
574.28	0.132
574.73	0.131
575.18	0.132
575.63	0.132
576.08	0.128
576.53	0.131
576.98	0.131
577.44	0.130
577.89	0.130
578.34	0.130
578.79	0.130
579.24	0.130
579.69	0.132
580.14	0.129
580.59	0.129
581.04	0.129
581.49	0.130
581.95	0.132
582.40	0.131
582.85	0.130
583.30	0.129
583.75	0.131
584.20	0.130
584.65	0.132
585.10	0.133
585.55	0.133
586.00	0.132
586.45	0.132
586.90	0.134
587.35	0.133
587.80	0.133
588.25	0.134
588.71	0.134
589.16	0.134
589.61	0.135
590.06	0.134
590.51	0.134
590.96	0.135
591.41	0.135
591.86	0.135
592.31	0.136
592.76	0.136
593.21	0.135
593.66	0.138
594.11	0.136
594.56	0.135
595.01	0.138
595.46	0.138
595.91	0.139
596.36	0.139
596.81	0.139
597.26	0.139
597.71	0.140
598.16	0.140
598.61	0.140
599.06	0.140
599.51	0.143
599.96	0.142
600.41	0.142
600.86	0.141
601.31	0.143
601.76	0.143
602.21	0.143
602.65	0.143
603.10	0.143
603.55	0.143
604.00	0.144
604.45	0.143
604.90	0.145
605.35	0.144
605.80	0.145
606.25	0.147
606.70	0.145
607.15	0.146
607.60	0.145
608.05	0.145
608.50	0.146
608.95	0.144
609.39	0.147
609.84	0.148
610.29	0.146
610.74	0.146
611.19	0.147
611.64	0.147
612.09	0.146
612.54	0.148
612.99	0.150
613.44	0.147
613.88	0.150
614.33	0.148
614.78	0.145
615.23	0.147
615.68	0.146
616.13	0.148
616.58	0.146
617.03	0.147
617.47	0.151
617.92	0.146
618.37	0.146
618.82	0.149
619.27	0.149
619.72	0.148
620.17	0.147
620.61	0.147
621.06	0.146
621.51	0.147
621.96	0.145
622.41	0.147
622.86	0.146
623.30	0.147
623.75	0.147
624.20	0.149
624.65	0.146
625.10	0.146
625.54	0.148
625.99	0.145
626.44	0.146
626.89	0.147
627.34	0.149
627.78	0.147
628.23	0.147
628.68	0.147
629.13	0.146
629.58	0.150
630.02	0.147
630.47	0.149
630.92	0.148
631.37	0.149
631.81	0.149
632.26	0.150
632.71	0.152
633.16	0.149
633.61	0.151
634.05	0.149
634.50	0.150
634.95	0.151
635.40	0.151
635.84	0.151
636.29	0.152
636.74	0.152
637.18	0.152
637.63	0.153
638.08	0.152
638.53	0.154
638.97	0.153
639.42	0.156
639.87	0.156
640.32	0.154
640.76	0.159
641.21	0.158
641.66	0.158
642.10	0.160
642.55	0.157
643.00	0.159
643.44	0.161
643.89	0.161
644.34	0.161
644.79	0.161
645.23	0.161
645.68	0.164
646.13	0.165
646.57	0.164
647.02	0.165
647.47	0.169
647.91	0.167
648.36	0.167
648.81	0.170
649.25	0.168
649.70	0.167
650.15	0.169
650.59	0.170
651.04	0.169
651.48	0.174
651.93	0.175
652.38	0.172
652.82	0.174
653.27	0.173
653.72	0.175
654.16	0.174
654.61	0.176
655.06	0.176
655.50	0.176
655.95	0.175
656.39	0.172
656.84	0.177
657.29	0.180
657.73	0.178
658.18	0.179
658.62	0.181
659.07	0.179
659.52	0.181
659.96	0.182
660.41	0.183
660.85	0.182
661.30	0.183
661.74	0.184
662.19	0.184
662.64	0.184
663.08	0.184
663.53	0.184
663.97	0.184
664.42	0.184
664.86	0.186
665.31	0.184
665.75	0.183
666.20	0.184
666.65	0.185
667.09	0.183
667.54	0.186
667.98	0.183
668.43	0.182
668.87	0.181
669.32	0.180
669.76	0.181
670.21	0.181
670.65	0.177
671.10	0.179
671.54	0.180
671.99	0.176
672.43	0.174
672.88	0.174
673.32	0.174
673.77	0.170
674.21	0.170
674.66	0.168
675.10	0.165
675.55	0.163
675.99	0.164
676.44	0.161
676.88	0.160
677.33	0.158
677.77	0.155
678.22	0.154
678.66	0.150
679.11	0.149
679.55	0.150
679.99	0.147
680.44	0.147
680.88	0.143
681.33	0.141
681.77	0.138
682.22	0.139
682.66	0.136
683.11	0.133
683.55	0.131
683.99	0.131
684.44	0.129
684.88	0.125
685.33	0.124
685.77	0.122
686.21	0.120
686.66	0.119
687.10	0.116
687.55	0.115
687.99	0.117
688.44	0.115
688.88	0.111
689.32	0.111
689.77	0.107
690.21	0.108
690.65	0.107
691.10	0.105
691.54	0.103
691.99	0.101
692.43	0.101
692.87	0.100
693.32	0.101
693.76	0.101
694.20	0.100
694.65	0.098
695.09	0.097
695.53	0.096
695.98	0.095
696.42	0.095
696.86	0.093
697.31	0.091
697.75	0.092
698.19	0.092
698.64	0.091
699.08	0.089
699.52	0.087
699.97	0.090
700.41	0.090
700.85	0.089
701.30	0.086
701.74	0.088
702.18	0.087
702.63	0.086
703.07	0.085
703.51	0.087
703.96	0.088
704.40	0.085
704.84	0.086
705.28	0.084
705.73	0.085
706.17	0.085
706.61	0.084
707.06	0.084
707.50	0.084
707.94	0.084
708.38	0.081
708.83	0.084
709.27	0.084
709.71	0.083
710.15	0.083
710.60	0.082
711.04	0.082
711.48	0.083
711.92	0.083
712.37	0.082
712.81	0.083
713.25	0.082
713.69	0.082
714.13	0.082
714.58	0.083
715.02	0.083
715.46	0.082
715.90	0.081
716.35	0.079
716.79	0.083
717.23	0.084
717.67	0.082
718.11	0.082
718.56	0.082
719.00	0.084
719.44	0.083
719.88	0.081
720.32	0.081
720.76	0.083
721.21	0.079
721.65	0.081
722.09	0.083
722.53	0.082
722.97	0.082
723.41	0.082
723.86	0.082
724.30	0.082
724.74	0.082
725.18	0.080
725.62	0.079
726.06	0.081
726.50	0.080
726.95	0.081
727.39	0.081
727.83	0.082
728.27	0.083
728.71	0.082
729.15	0.084
729.59	0.082
730.03	0.081
730.48	0.083
730.92	0.081
731.36	0.083
731.80	0.084
732.24	0.084
732.68	0.082
733.12	0.080
733.56	0.084
734.00	0.083
734.44	0.083
734.89	0.083
735.33	0.083
735.77	0.085
736.21	0.084
736.65	0.082
737.09	0.085
737.53	0.085
737.97	0.083
738.41	0.084
738.85	0.084
739.29	0.085
739.73	0.084
740.17	0.084
740.61	0.084
741.05	0.086
741.49	0.084
741.93	0.085
742.37	0.082
742.81	0.085
743.26	0.083
743.70	0.084
744.14	0.083
744.58	0.081
745.02	0.084
745.46	0.086
745.90	0.084
746.34	0.084
746.78	0.084
747.22	0.084
747.66	0.085
748.10	0.082
748.54	0.083
748.98	0.084
749.42	0.085
749.86	0.084
750.29	0.084
750.73	0.082
751.17	0.082
751.61	0.081
752.05	0.087
752.49	0.082
752.93	0.083
753.37	0.081
753.81	0.081
754.25	0.082
754.69	0.080
755.13	0.081
755.57	0.082
756.01	0.081
756.45	0.083
756.89	0.081
757.33	0.081
757.77	0.082
758.21	0.083
758.64	0.081
759.08	0.078
759.52	0.082
759.96	0.083
760.40	0.081
760.84	0.078
761.28	0.080
761.72	0.080
762.16	0.082
762.60	0.080
763.03	0.080
763.47	0.081
763.91	0.082
764.35	0.081
764.79	0.080
765.23	0.079
765.67	0.080
766.11	0.078
766.54	0.076
766.98	0.079
767.42	0.079
767.86	0.079
768.30	0.080
768.74	0.083
769.17	0.081
769.61	0.081
770.05	0.076
770.49	0.080
770.93	0.081
771.37	0.076
771.80	0.077
772.24	0.078
772.68	0.079
773.12	0.079
773.56	0.077
774.00	0.078
774.43	0.078
774.87	0.079
775.31	0.078
775.75	0.080
776.19	0.077
776.62	0.078
777.06	0.079
777.50	0.078
777.94	0.076
778.37	0.078
778.81	0.078
779.25	0.077
779.69	0.079
780.13	0.076
780.56	0.076
781.00	0.078
781.44	0.080
781.88	0.077
782.31	0.080
782.75	0.078
783.19	0.079
783.63	0.076
784.06	0.076
784.50	0.080
784.94	0.077
785.37	0.077
785.81	0.080
786.25	0.075
786.69	0.074
787.12	0.078
787.56	0.075
788.00	0.079
788.43	0.080
788.87	0.076
789.31	0.076
789.75	0.077
790.18	0.073
790.62	0.076
791.06	0.078
791.49	0.076
791.93	0.074
792.37	0.079
792.80	0.075
793.24	0.073
793.68	0.076
794.11	0.078
794.55	0.079
794.99	0.076
795.42	0.077
795.86	0.080
796.30	0.078
796.73	0.076
797.17	0.075
797.61	0.076
798.04	0.077
798.48	0.077
798.91	0.075
799.35	0.076
799.79	0.080
800.22	0.077
800.66	0.073
801.10	0.077
801.53	0.074
801.97	0.078
802.40	0.077
802.84	0.078
803.28	0.076
803.71	0.077
804.15	0.075
804.58	0.075
805.02	0.077
805.46	0.077
805.89	0.074
806.33	0.076
806.76	0.073
807.20	0.079
807.63	0.074
808.07	0.076
808.51	0.076
808.94	0.073
809.38	0.073
809.81	0.074
810.25	0.079
810.68	0.078
811.12	0.078
811.55	0.081
811.99	0.072
812.42	0.075
812.86	0.074
813.29	0.072
813.73	0.076
814.17	0.074
814.60	0.075
815.04	0.074
815.47	0.076
815.91	0.073
816.34	0.075
816.78	0.076
817.21	0.080
817.65	0.076
818.08	0.072
818.52	0.077
818.95	0.074
819.39	0.076
819.82	0.075
820.25	0.075
820.69	0.074
821.12	0.076
821.56	0.075
821.99	0.075
822.43	0.073
822.86	0.076
823.30	0.078
823.73	0.075
824.17	0.078
824.60	0.077
825.04	0.076
825.47	0.076
825.90	0.077
826.34	0.079
826.77	0.077
827.21	0.079
827.64	0.078
828.08	0.077
828.51	0.074
828.94	0.073
829.38	0.074
829.81	0.079
830.25	0.078
830.68	0.082
831.11	0.080
831.55	0.083
831.98	0.085
832.42	0.083
832.85	0.078
833.28	0.081
833.72	0.082
834.15	0.082
834.58	0.082
835.02	0.083
835.45	0.082
835.88	0.080
836.32	0.085
836.75	0.083
837.19	0.080
837.62	0.086
838.05	0.078
838.49	0.082
838.92	0.081
839.35	0.084
839.79	0.080
840.22	0.085
840.65	0.081
841.09	0.082
841.52	0.079
841.95	0.081
842.39	0.086
842.82	0.079
843.25	0.084
843.68	0.085
844.12	0.080
844.55	0.079
844.98	0.083
845.42	0.085
845.85	0.080
846.28	0.084
846.71	0.087
847.15	0.087
847.58	0.083
848.01	0.081
848.45	0.081
848.88	0.087
849.31	0.081
849.74	0.084
850.18	0.085
850.61	0.084
851.04	0.088
851.47	0.081
851.91	0.085
852.34	0.084
852.77	0.083
853.20	0.084
853.64	0.084
854.07	0.086
854.50	0.081
854.93	0.086
855.36	0.087
855.80	0.086
856.23	0.084
856.66	0.084
857.09	0.084
857.52	0.083
857.96	0.082
858.39	0.079
858.82	0.084
859.25	0.088
859.68	0.082
860.12	0.083
860.55	0.082
860.98	0.083
861.41	0.081
861.84	0.086
862.27	0.081
862.71	0.084
863.14	0.089
863.57	0.084
864.00	0.078
864.43	0.086
864.86	0.084
865.30	0.092
865.73	0.087
866.16	0.083
866.59	0.084
867.02	0.083
867.45	0.083
867.88	0.087
868.31	0.093
868.75	0.087
869.18	0.093
869.61	0.092
870.04	0.085
870.47	0.090
870.90	0.079
871.33	0.083
871.76	0.084
872.19	0.087
872.62	0.083
873.06	0.083
873.49	0.086
873.92	0.089
874.35	0.090
874.78	0.088
875.21	0.092
875.64	0.089
876.07	0.093
876.50	0.087
876.93	0.091
877.36	0.089
877.79	0.089
878.22	0.088
878.65	0.092
879.08	0.087
879.51	0.093
879.94	0.086
880.37	0.092
880.80	0.091
881.23	0.083
881.67	0.092
882.10	0.093
882.53	0.089
882.96	0.095
883.39	0.092
883.82	0.092
884.25	0.090
884.68	0.088
885.11	0.091
885.54	0.096
885.97	0.091
886.39	0.087
886.82	0.094
887.25	0.091
887.68	0.092
888.11	0.092
888.54	0.085
888.97	0.097
889.40	0.091
889.83	0.091
890.26	0.091
890.69	0.090
891.12	0.089
891.55	0.092
891.98	0.091
892.41	0.088
892.84	0.094
893.27	0.092
893.70	0.091
894.13	0.093
894.56	0.096
894.98	0.096
895.41	0.097
895.84	0.098
896.27	0.094
896.70	0.096
897.13	0.098
897.56	0.092
897.99	0.097
898.42	0.093
898.85	0.095
899.27	0.095
899.70	0.097
900.13	0.092
900.56	0.096
900.99	0.094
901.42	0.095
901.85	0.097
902.28	0.095
902.70	0.097
903.13	0.099
903.56	0.097
903.99	0.092
904.42	0.095
904.85	0.098
905.27	0.095
905.70	0.097
906.13	0.097
906.56	0.093
906.99	0.096
907.42	0.095
907.84	0.090
908.27	0.096
908.70	0.099
909.13	0.097
909.56	0.095
909.98	0.097
910.41	0.096
910.84	0.095
911.27	0.100
911.70	0.091
912.12	0.089
912.55	0.095
912.98	0.095
913.41	0.097
913.84	0.094
914.26	0.094
914.69	0.099
915.12	0.099
915.55	0.097
915.97	0.096
916.40	0.097
916.83	0.093
917.26	0.099
917.68	0.099
918.11	0.097
918.54	0.098
918.97	0.098
919.39	0.096
919.82	0.099
920.25	0.093
920.67	0.101
921.10	0.100
921.53	0.104
921.96	0.102
922.38	0.101
922.81	0.101
923.24	0.101
923.66	0.097
924.09	0.100
924.52	0.101
924.94	0.099
925.37	0.103
925.80	0.104
926.22	0.102
926.65	0.104
927.08	0.106
927.50	0.106
927.93	0.106
928.36	0.104
928.78	0.106
929.21	0.104
929.64	0.109
930.06	0.111
930.49	0.110
930.92	0.110
931.34	0.112
931.77	0.116
932.20	0.115
932.62	0.113
933.05	0.113
933.47	0.115
933.90	0.117
934.33	0.114
934.75	0.115
935.18	0.120
935.61	0.118
936.03	0.123
936.46	0.125
936.88	0.127
937.31	0.124
937.73	0.128
938.16	0.125
938.59	0.131
939.01	0.134
939.44	0.138
939.86	0.134
940.29	0.136
940.71	0.136
941.14	0.142
941.57	0.141
941.99	0.133
942.42	0.147
942.84	0.149
943.27	0.146
943.69	0.150
944.12	0.148
944.54	0.160
944.97	0.151
945.39	0.156
945.82	0.156
946.24	0.156
946.67	0.156
947.09	0.163
947.52	0.167
947.94	0.161
948.37	0.171
948.79	0.171
949.22	0.174
949.64	0.174
950.07	0.179
950.49	0.180
950.92	0.183
951.34	0.184
951.77	0.188
952.19	0.185
952.62	0.197
953.04	0.199
953.47	0.199
953.89	0.203
954.32	0.202
954.74	0.205
955.17	0.207
955.59	0.214
956.01	0.215
956.44	0.214
956.86	0.217
957.29	0.222
957.71	0.234
958.14	0.231
958.56	0.232
958.98	0.229
959.41	0.230
959.83	0.232
960.26	0.234
960.68	0.240
961.10	0.245
961.53	0.241
961.95	0.244
962.38	0.241
962.80	0.240
963.22	0.244
963.65	0.242
964.07	0.247
964.50	0.251
964.92	0.248
965.34	0.252
965.77	0.249
966.19	0.251
966.61	0.249
967.04	0.255
967.46	0.248
967.88	0.255
968.31	0.250
968.73	0.249
969.15	0.248
969.58	0.250
970.00	0.251
970.42	0.253
970.85	0.253
971.27	0.254
971.69	0.254
972.12	0.256
972.54	0.262
972.96	0.260
973.39	0.262
973.81	0.266
974.23	0.262
974.65	0.256
975.08	0.263
975.50	0.258
975.92	0.256
976.35	0.259
976.77	0.262
977.19	0.259
977.61	0.259
978.04	0.258
978.46	0.262
978.88	0.258
979.30	0.267
979.73	0.258
980.15	0.258
980.57	0.262
980.99	0.264
981.42	0.262
981.84	0.257
982.26	0.255
982.68	0.261
983.11	0.259
983.53	0.257
983.95	0.261
984.37	0.258
984.79	0.259
985.22	0.258
985.64	0.257
986.06	0.257
986.48	0.251
986.90	0.253
987.33	0.253
987.75	0.248
988.17	0.251
988.59	0.254
989.01	0.250
989.43	0.246
989.86	0.251
990.28	0.254
990.70	0.253
991.12	0.254
991.54	0.258
991.96	0.248
992.39	0.254
992.81	0.247
993.23	0.244
993.65	0.242
994.07	0.243
994.49	0.243
994.91	0.245
995.34	0.235
995.76	0.244
996.18	0.247
996.60	0.240
997.02	0.245
997.44	0.235
997.86	0.241
998.28	0.237
998.70	0.245
999.12	0.234
999.55	0.231
999.97	0.235
1000.39	0.234
1000.81	0.223
1001.23	0.226
1001.65	0.233
1002.07	0.229
1002.49	0.233
1002.91	0.214
1003.33	0.222
1003.75	0.228
1004.17	0.236
1004.59	0.224
1005.01	0.226
1005.43	0.229
1005.85	0.220
1006.28	0.220
1006.70	0.216
1007.12	0.223
1007.54	0.222
1007.96	0.217
1008.38	0.220
1008.80	0.220
1009.22	0.213
1009.64	0.217
1010.06	0.219
1010.48	0.214
1010.90	0.215
1011.32	0.213
1011.74	0.205
1012.16	0.217
1012.58	0.210
1013.00	0.205
1013.42	0.197
1013.84	0.206
1014.26	0.203
1014.67	0.205
1015.09	0.194
1015.51	0.203
1015.93	0.201
1016.35	0.200
1016.77	0.197
1017.19	0.200
1017.61	0.199
1018.03	0.193
1018.45	0.201
1018.87	0.200
1019.29	0.197
1019.71	0.190
1020.13	0.185
1020.55	0.193
1020.97	0.183
1021.38	0.186
1021.80	0.182
1022.22	0.187
1022.64	0.181
1023.06	0.183
1023.48	0.184
1023.90	0.181
1024.32	0.178
1024.74	0.172
1025.15	0.186
1025.57	0.181
1025.99	0.179
1026.41	0.184
1026.83	0.180
1027.25	0.177
1027.67	0.173
1028.08	0.181
1028.50	0.177
1028.92	0.158
1029.34	0.168
1029.76	0.184
1030.18	0.180
1030.60	0.181
1031.01	0.173
1031.43	0.175
1031.85	0.168
1032.27	0.180
1032.69	0.156
1033.10	0.175
1033.52	0.166
1033.94	0.164
1034.36	0.165
1034.78	0.160
1035.19	0.172
1035.61	0.158
1036.03	0.157
1036.45	0.157
1036.87	0.157
1037.28	0.165
1037.70	0.157
1038.12	0.158
1038.54	0.155
1038.95	0.158
1039.37	0.147
1039.79	0.153
1040.21	0.165
1040.62	0.166
1041.04	0.157
1041.46	0.151
1041.88	0.151
1042.29	0.165
1042.71	0.141
1043.13	0.165
1043.55	0.162
1043.96	0.156
1044.38	0.164
1044.80	0.167
1045.21	0.157
1045.63	0.128
1046.05	0.143
1046.47	0.160
1046.88	0.152
1047.30	0.144
1047.72	0.128
1048.13	0.133
1048.55	0.128
1048.97	0.141
1049.38	0.165
1049.80	0.137
1050.22	0.139
1050.63	0.124
1051.05	0.158
1051.47	0.155
1051.88	0.133
1052.30	0.140
1052.72	0.131
1053.13	0.142
1053.55	0.126
1053.97	0.131
1054.38	0.156
1054.80	0.164
1055.21	0.142
1055.63	0.146
1056.05	0.127
1056.46	0.166
1056.88	0.172
1057.29	0.141
1057.71	0.134
1058.13	0.158
1058.54	0.158
1058.96	0.140
1059.37	0.145
1059.79	0.147
1060.21	0.170
1060.62	0.145
1061.04	0.152
1061.45	0.171
1061.87	0.142
1062.28	0.148
1062.70	0.140
1063.12	0.115
1063.53	0.135
1063.95	0.133
1064.36	0.163
1064.78	0.206
1065.19	0.187
1065.61	0.160
1066.02	0.146
1066.44	0.168
1066.85	0.178
1067.27	0.152
1067.68	0.192
1068.10	0.097
1068.51	0.186
1068.93	0.215
1069.35	0.218
1069.76	0.152
1070.17	0.203
1070.59	0.193
1071.00	0.220
1071.42	0.165
1071.83	0.249
1072.25	0.316
1072.66	0.195
1073.08	0.294
1073.49	0.222
1073.91	0.211
1074.32	0.341
1074.74	0.368
1075.15	0.371
1075.57	0.168
1075.98	0.299
1076.40	0.238
1076.81	0.425
1077.22	0.311
1077.64	0.197
1078.05	0.338
1078.47	0.226
1078.88	0.365
1079.30	0.401
1079.71	0.740
1080.12	0.541
1080.54	-0.000
1080.95	0.525
1081.37	0.702
1081.78	0.248
1082.19	0.533
1082.61	0.828
1083.02	1.090
1083.44	0.730
1083.85	0.449
1084.26	0.786
1084.68	-0.000
1085.09	0.499
1085.50	0.681
1085.92	0.861
1086.33	0.432
1086.74	0.500
1087.16	-0.000
1087.57	-0.000
1087.98	0.905
1088.40	-0.000
1088.81	-0.000
1089.22	-0.000
1089.64	1.188
1090.05	1.038
1090.46	-0.000
1090.88	-0.000
1091.29	0.381
1091.70	-0.000
1092.12	-0.000
1092.53	-0.000
1092.94	-0.000
1093.36	1.002
1093.77	1.032
1094.18	0.336
1094.59	-0.000
1095.01	-0.000
1095.42	0.928
1095.83	-0.000
1096.25	-0.000
1096.66	-0.000
1097.07	-0.000
1097.48	-0.000
1097.90	-0.000
1098.31	0.479
1098.72	1.398
1099.13	-0.000
>>>>>End Processed Spectral Data<<<<<
