SpectraSuite Data File
++++++++++++++++++++++++++++++++++++
Date: Sun Apr 24 16:38:59 CEST 2016
User: spectrasuite
Dark Spectrum Present: Yes
Reference Spectrum Present: Yes
Number of Sampled Component Spectra: 1
Spectrometers: HR+C0708
Integration Time (usec): 1000 (HR+C0708)
Spectra Averaged: 10 (HR+C0708)
Boxcar Smoothing: 0 (HR+C0708)
Correct for Electrical Dark: No (HR+C0708)
Strobe/Lamp Enabled: No (HR+C0708)
Correct for Detector Non-linearity: No (HR+C0708)
Correct for Stray Light: No (HR+C0708)
Number of Pixels in Processed Spectrum: 2048
>>>>>Begin Processed Spectral Data<<<<<
188.76	-0.000
189.23	-0.000
189.70	-0.000
190.17	-0.000
190.64	-0.000
191.12	-0.000
191.59	-0.000
192.06	-0.000
192.53	-0.000
193.01	-0.000
193.48	2.161
193.95	-0.000
194.42	-0.000
194.90	1.176
195.37	-0.000
195.84	-0.000
196.31	-0.000
196.78	-0.000
197.26	-0.000
197.73	-0.000
198.20	-0.000
198.67	-0.000
199.14	-0.000
199.62	-0.000
200.09	-0.000
200.56	-0.000
201.03	-0.000
201.50	1.395
201.97	1.129
202.45	-0.000
202.92	-0.000
203.39	1.038
203.86	0.921
204.33	-0.000
204.80	-0.000
205.28	0.906
205.75	-0.000
206.22	-0.000
206.69	-0.000
207.16	-0.000
207.63	1.783
208.11	0.817
208.58	1.050
209.05	-0.000
209.52	-0.000
209.99	-0.000
210.46	0.805
210.93	-0.000
211.41	-0.000
211.88	1.209
212.35	-0.000
212.82	-0.000
213.29	-0.000
213.76	1.105
214.23	-0.000
214.70	-0.000
215.18	-0.000
215.65	0.965
216.12	1.187
216.59	-0.000
217.06	-0.000
217.53	0.906
218.00	-0.000
218.47	1.268
218.94	1.350
219.41	-0.000
219.89	1.721
220.36	-0.000
220.83	1.021
221.30	-0.000
221.77	-0.000
222.24	-0.000
222.71	-0.000
223.18	-0.000
223.65	-0.000
224.12	-0.000
224.59	-0.000
225.06	-0.000
225.54	-0.000
226.01	1.250
226.48	2.033
226.95	-0.000
227.42	1.528
227.89	-0.000
228.36	2.519
228.83	-0.000
229.30	1.557
229.77	-0.000
230.24	2.095
230.71	-0.000
231.18	2.885
231.65	2.149
232.12	2.026
232.59	1.938
233.06	2.962
233.53	3.306
234.00	2.133
234.47	2.057
234.94	-0.000
235.41	2.714
235.88	-0.000
236.35	-0.000
236.82	-0.000
237.29	2.737
237.76	2.681
238.23	2.863
238.70	-0.000
239.17	2.185
239.64	2.775
240.11	-0.000
240.58	2.725
241.05	2.892
241.52	2.783
241.99	-0.000
242.46	2.969
242.93	-0.000
243.40	3.406
243.87	3.278
244.34	2.419
244.81	3.306
245.28	-0.000
245.75	3.353
246.22	3.065
246.69	3.774
247.16	3.053
247.63	-0.000
248.10	3.651
248.57	-0.000
249.04	-0.000
249.51	3.015
249.98	3.566
250.45	-0.000
250.92	2.882
251.39	3.336
251.85	-0.000
252.32	-0.000
252.79	3.930
253.26	3.717
253.73	-0.000
254.20	3.895
254.67	2.753
255.14	3.255
255.61	-0.000
256.08	2.844
256.55	4.380
257.02	3.509
257.49	-0.000
257.95	2.824
258.42	3.480
258.89	3.329
259.36	3.137
259.83	2.753
260.30	-0.000
260.77	-0.000
261.24	2.967
261.71	3.258
262.17	3.103
262.64	2.908
263.11	2.868
263.58	3.517
264.05	3.100
264.52	2.945
264.99	2.693
265.46	2.758
265.92	2.818
266.39	2.667
266.86	2.895
267.33	2.935
267.80	2.543
268.27	2.547
268.74	2.638
269.20	2.692
269.67	2.627
270.14	2.456
270.61	2.527
271.08	2.643
271.55	2.413
272.01	2.391
272.48	2.463
272.95	2.386
273.42	2.322
273.89	2.377
274.36	2.363
274.82	2.254
275.29	2.239
275.76	2.305
276.23	2.452
276.70	2.265
277.16	2.239
277.63	2.248
278.10	2.214
278.57	2.229
279.04	2.208
279.50	2.264
279.97	2.175
280.44	2.117
280.91	2.131
281.38	2.166
281.84	2.118
282.31	2.152
282.78	2.213
283.25	2.057
283.72	2.032
284.18	2.079
284.65	2.086
285.12	2.000
285.59	1.991
286.05	2.054
286.52	2.025
286.99	1.984
287.46	1.989
287.92	2.027
288.39	1.961
288.86	1.982
289.33	1.957
289.79	1.966
290.26	1.914
290.73	1.923
291.20	1.941
291.66	1.926
292.13	1.893
292.60	1.923
293.07	1.908
293.53	1.854
294.00	1.870
294.47	1.870
294.93	1.860
295.40	1.824
295.87	1.851
296.34	1.829
296.80	1.812
297.27	1.797
297.74	1.785
298.20	1.826
298.67	1.750
299.14	1.780
299.60	1.804
300.07	1.768
300.54	1.750
301.01	1.756
301.47	1.730
301.94	1.702
302.41	1.727
302.87	1.744
303.34	1.758
303.81	1.689
304.27	1.699
304.74	1.690
305.21	1.661
305.67	1.670
306.14	1.666
306.61	1.689
307.07	1.639
307.54	1.653
308.01	1.657
308.47	1.642
308.94	1.666
309.40	1.647
309.87	1.639
310.34	1.606
310.80	1.601
311.27	1.605
311.74	1.595
312.20	1.564
312.67	1.584
313.13	1.574
313.60	1.585
314.07	1.568
314.53	1.540
315.00	1.552
315.47	1.550
315.93	1.539
316.40	1.541
316.86	1.537
317.33	1.520
317.80	1.499
318.26	1.520
318.73	1.518
319.19	1.498
319.66	1.483
320.13	1.510
320.59	1.474
321.06	1.475
321.52	1.474
321.99	1.480
322.45	1.452
322.92	1.460
323.39	1.447
323.85	1.460
324.32	1.448
324.78	1.450
325.25	1.448
325.71	1.427
326.18	1.415
326.64	1.453
327.11	1.424
327.58	1.389
328.04	1.392
328.51	1.404
328.97	1.376
329.44	1.387
329.90	1.372
330.37	1.383
330.83	1.344
331.30	1.361
331.76	1.361
332.23	1.327
332.69	1.330
333.16	1.314
333.62	1.320
334.09	1.297
334.56	1.293
335.02	1.301
335.49	1.283
335.95	1.260
336.42	1.258
336.88	1.255
337.35	1.243
337.81	1.238
338.28	1.224
338.74	1.222
339.20	1.202
339.67	1.189
340.13	1.185
340.60	1.175
341.06	1.144
341.53	1.144
341.99	1.146
342.46	1.123
342.92	1.113
343.39	1.093
343.85	1.097
344.32	1.071
344.78	1.074
345.25	1.059
345.71	1.054
346.17	1.033
346.64	1.024
347.10	1.019
347.57	0.984
348.03	0.978
348.50	0.968
348.96	0.947
349.43	0.935
349.89	0.921
350.35	0.911
350.82	0.904
351.28	0.891
351.75	0.873
352.21	0.860
352.67	0.841
353.14	0.845
353.60	0.832
354.07	0.808
354.53	0.803
355.00	0.792
355.46	0.788
355.92	0.769
356.39	0.759
356.85	0.753
357.31	0.750
357.78	0.740
358.24	0.726
358.71	0.719
359.17	0.711
359.63	0.706
360.10	0.706
360.56	0.699
361.03	0.689
361.49	0.681
361.95	0.678
362.42	0.674
362.88	0.672
363.34	0.664
363.81	0.661
364.27	0.658
364.73	0.653
365.20	0.650
365.66	0.643
366.12	0.645
366.59	0.643
367.05	0.638
367.51	0.638
367.98	0.626
368.44	0.631
368.90	0.625
369.37	0.622
369.83	0.622
370.29	0.621
370.76	0.618
371.22	0.612
371.68	0.614
372.15	0.606
372.61	0.602
373.07	0.603
373.54	0.605
374.00	0.605
374.46	0.603
374.92	0.594
375.39	0.593
375.85	0.593
376.31	0.590
376.78	0.591
377.24	0.588
377.70	0.583
378.16	0.581
378.63	0.581
379.09	0.582
379.55	0.579
380.01	0.579
380.48	0.580
380.94	0.573
381.40	0.571
381.87	0.567
382.33	0.566
382.79	0.566
383.25	0.565
383.72	0.564
384.18	0.560
384.64	0.554
385.10	0.556
385.56	0.557
386.03	0.549
386.49	0.551
386.95	0.549
387.41	0.547
387.88	0.546
388.34	0.547
388.80	0.541
389.26	0.548
389.72	0.537
390.19	0.541
390.65	0.537
391.11	0.539
391.57	0.534
392.04	0.536
392.50	0.530
392.96	0.530
393.42	0.527
393.88	0.528
394.34	0.525
394.81	0.526
395.27	0.522
395.73	0.522
396.19	0.517
396.65	0.518
397.12	0.518
397.58	0.511
398.04	0.511
398.50	0.515
398.96	0.511
399.42	0.515
399.89	0.509
400.35	0.507
400.81	0.505
401.27	0.506
401.73	0.503
402.19	0.500
402.65	0.501
403.12	0.496
403.58	0.493
404.04	0.493
404.50	0.494
404.96	0.491
405.42	0.492
405.88	0.493
406.34	0.491
406.81	0.488
407.27	0.488
407.73	0.485
408.19	0.480
408.65	0.480
409.11	0.478
409.57	0.482
410.03	0.479
410.49	0.475
410.96	0.476
411.42	0.476
411.88	0.472
412.34	0.471
412.80	0.472
413.26	0.468
413.72	0.467
414.18	0.466
414.64	0.464
415.10	0.467
415.56	0.467
416.02	0.468
416.48	0.459
416.95	0.456
417.41	0.459
417.87	0.457
418.33	0.456
418.79	0.456
419.25	0.456
419.71	0.451
420.17	0.454
420.63	0.449
421.09	0.450
421.55	0.446
422.01	0.450
422.47	0.450
422.93	0.448
423.39	0.446
423.85	0.448
424.31	0.443
424.77	0.440
425.23	0.440
425.69	0.441
426.15	0.442
426.61	0.437
427.07	0.432
427.53	0.434
427.99	0.428
428.45	0.432
428.91	0.430
429.37	0.430
429.83	0.430
430.29	0.430
430.75	0.430
431.21	0.433
431.67	0.429
432.13	0.426
432.59	0.422
433.05	0.419
433.51	0.422
433.97	0.422
434.43	0.421
434.89	0.420
435.35	0.418
435.81	0.419
436.27	0.414
436.73	0.416
437.19	0.411
437.65	0.415
438.11	0.414
438.57	0.415
439.03	0.414
439.48	0.410
439.94	0.408
440.40	0.406
440.86	0.408
441.32	0.400
441.78	0.407
442.24	0.405
442.70	0.403
443.16	0.401
443.62	0.401
444.08	0.402
444.54	0.402
444.99	0.395
445.45	0.397
445.91	0.393
446.37	0.395
446.83	0.393
447.29	0.393
447.75	0.392
448.21	0.395
448.67	0.392
449.12	0.387
449.58	0.387
450.04	0.384
450.50	0.385
450.96	0.388
451.42	0.383
451.88	0.383
452.34	0.383
452.79	0.384
453.25	0.385
453.71	0.382
454.17	0.380
454.63	0.382
455.09	0.379
455.55	0.380
456.00	0.376
456.46	0.373
456.92	0.375
457.38	0.375
457.84	0.372
458.30	0.368
458.75	0.371
459.21	0.368
459.67	0.370
460.13	0.370
460.59	0.367
461.04	0.364
461.50	0.367
461.96	0.362
462.42	0.367
462.88	0.362
463.33	0.363
463.79	0.360
464.25	0.361
464.71	0.360
465.17	0.361
465.62	0.360
466.08	0.362
466.54	0.361
467.00	0.360
467.46	0.358
467.91	0.355
468.37	0.356
468.83	0.356
469.29	0.353
469.74	0.353
470.20	0.354
470.66	0.352
471.12	0.349
471.57	0.350
472.03	0.349
472.49	0.347
472.95	0.346
473.40	0.346
473.86	0.344
474.32	0.343
474.78	0.346
475.23	0.344
475.69	0.343
476.15	0.342
476.60	0.344
477.06	0.341
477.52	0.337
477.98	0.339
478.43	0.338
478.89	0.338
479.35	0.335
479.80	0.339
480.26	0.338
480.72	0.337
481.18	0.334
481.63	0.334
482.09	0.333
482.55	0.334
483.00	0.333
483.46	0.332
483.92	0.330
484.37	0.331
484.83	0.327
485.29	0.328
485.74	0.329
486.20	0.327
486.66	0.327
487.11	0.326
487.57	0.324
488.03	0.324
488.48	0.323
488.94	0.322
489.40	0.321
489.85	0.323
490.31	0.323
490.77	0.322
491.22	0.318
491.68	0.319
492.13	0.320
492.59	0.318
493.05	0.318
493.50	0.319
493.96	0.316
494.42	0.315
494.87	0.312
495.33	0.312
495.78	0.316
496.24	0.313
496.70	0.315
497.15	0.312
497.61	0.311
498.06	0.311
498.52	0.309
498.98	0.308
499.43	0.308
499.89	0.308
500.34	0.306
500.80	0.308
501.25	0.308
501.71	0.308
502.17	0.305
502.62	0.308
503.08	0.305
503.53	0.301
503.99	0.300
504.44	0.302
504.90	0.301
505.36	0.301
505.81	0.301
506.27	0.301
506.72	0.301
507.18	0.302
507.63	0.297
508.09	0.300
508.54	0.298
509.00	0.295
509.45	0.297
509.91	0.296
510.36	0.295
510.82	0.295
511.27	0.295
511.73	0.296
512.19	0.292
512.64	0.294
513.10	0.293
513.55	0.292
514.01	0.289
514.46	0.291
514.92	0.290
515.37	0.289
515.83	0.291
516.28	0.288
516.73	0.287
517.19	0.289
517.64	0.284
518.10	0.287
518.55	0.284
519.01	0.285
519.46	0.283
519.92	0.286
520.37	0.282
520.83	0.281
521.28	0.282
521.74	0.282
522.19	0.281
522.65	0.279
523.10	0.281
523.55	0.282
524.01	0.281
524.46	0.278
524.92	0.278
525.37	0.278
525.83	0.276
526.28	0.278
526.73	0.276
527.19	0.279
527.64	0.277
528.10	0.276
528.55	0.273
529.01	0.273
529.46	0.272
529.91	0.275
530.37	0.272
530.82	0.274
531.28	0.271
531.73	0.269
532.18	0.270
532.64	0.271
533.09	0.270
533.54	0.270
534.00	0.268
534.45	0.272
534.91	0.269
535.36	0.268
535.81	0.266
536.27	0.266
536.72	0.268
537.17	0.265
537.63	0.264
538.08	0.264
538.54	0.263
538.99	0.265
539.44	0.265
539.90	0.264
540.35	0.263
540.80	0.262
541.26	0.261
541.71	0.261
542.16	0.262
542.62	0.260
543.07	0.260
543.52	0.259
543.98	0.258
544.43	0.259
544.88	0.256
545.34	0.258
545.79	0.258
546.24	0.257
546.69	0.258
547.15	0.254
547.60	0.257
548.05	0.257
548.51	0.253
548.96	0.253
549.41	0.256
549.86	0.254
550.32	0.254
550.77	0.255
551.22	0.252
551.68	0.248
552.13	0.252
552.58	0.252
553.03	0.252
553.49	0.251
553.94	0.250
554.39	0.248
554.84	0.251
555.30	0.250
555.75	0.248
556.20	0.248
556.65	0.245
557.11	0.248
557.56	0.246
558.01	0.246
558.46	0.248
558.92	0.247
559.37	0.246
559.82	0.246
560.27	0.244
560.72	0.244
561.18	0.244
561.63	0.244
562.08	0.240
562.53	0.243
562.99	0.244
563.44	0.242
563.89	0.241
564.34	0.243
564.79	0.242
565.25	0.239
565.70	0.238
566.15	0.237
566.60	0.238
567.05	0.240
567.50	0.238
567.96	0.238
568.41	0.237
568.86	0.236
569.31	0.236
569.76	0.233
570.21	0.235
570.67	0.235
571.12	0.236
571.57	0.233
572.02	0.234
572.47	0.233
572.92	0.232
573.37	0.231
573.83	0.230
574.28	0.231
574.73	0.231
575.18	0.232
575.63	0.232
576.08	0.229
576.53	0.229
576.98	0.231
577.44	0.227
577.89	0.229
578.34	0.225
578.79	0.226
579.24	0.228
579.69	0.228
580.14	0.225
580.59	0.225
581.04	0.225
581.49	0.224
581.95	0.224
582.40	0.224
582.85	0.223
583.30	0.223
583.75	0.222
584.20	0.224
584.65	0.221
585.10	0.222
585.55	0.223
586.00	0.221
586.45	0.222
586.90	0.220
587.35	0.220
587.80	0.219
588.25	0.221
588.71	0.220
589.16	0.220
589.61	0.219
590.06	0.218
590.51	0.219
590.96	0.219
591.41	0.217
591.86	0.218
592.31	0.218
592.76	0.217
593.21	0.218
593.66	0.216
594.11	0.216
594.56	0.216
595.01	0.215
595.46	0.215
595.91	0.214
596.36	0.215
596.81	0.215
597.26	0.215
597.71	0.214
598.16	0.214
598.61	0.213
599.06	0.213
599.51	0.214
599.96	0.215
600.41	0.213
600.86	0.213
601.31	0.211
601.76	0.211
602.21	0.210
602.65	0.213
603.10	0.210
603.55	0.209
604.00	0.209
604.45	0.210
604.90	0.209
605.35	0.210
605.80	0.209
606.25	0.211
606.70	0.208
607.15	0.208
607.60	0.210
608.05	0.205
608.50	0.207
608.95	0.205
609.39	0.208
609.84	0.206
610.29	0.207
610.74	0.206
611.19	0.205
611.64	0.204
612.09	0.206
612.54	0.203
612.99	0.204
613.44	0.203
613.88	0.206
614.33	0.204
614.78	0.199
615.23	0.202
615.68	0.202
616.13	0.203
616.58	0.202
617.03	0.201
617.47	0.200
617.92	0.200
618.37	0.200
618.82	0.200
619.27	0.200
619.72	0.200
620.17	0.197
620.61	0.197
621.06	0.200
621.51	0.199
621.96	0.197
622.41	0.198
622.86	0.196
623.30	0.198
623.75	0.197
624.20	0.196
624.65	0.194
625.10	0.196
625.54	0.193
625.99	0.194
626.44	0.195
626.89	0.194
627.34	0.198
627.78	0.195
628.23	0.194
628.68	0.193
629.13	0.192
629.58	0.194
630.02	0.193
630.47	0.191
630.92	0.193
631.37	0.195
631.81	0.194
632.26	0.190
632.71	0.192
633.16	0.191
633.61	0.191
634.05	0.189
634.50	0.190
634.95	0.190
635.40	0.191
635.84	0.191
636.29	0.189
636.74	0.192
637.18	0.190
637.63	0.190
638.08	0.190
638.53	0.189
638.97	0.189
639.42	0.190
639.87	0.188
640.32	0.187
640.76	0.186
641.21	0.186
641.66	0.189
642.10	0.188
642.55	0.185
643.00	0.185
643.44	0.185
643.89	0.187
644.34	0.185
644.79	0.185
645.23	0.186
645.68	0.187
646.13	0.186
646.57	0.186
647.02	0.185
647.47	0.188
647.91	0.185
648.36	0.182
648.81	0.185
649.25	0.183
649.70	0.182
650.15	0.183
650.59	0.184
651.04	0.182
651.48	0.186
651.93	0.183
652.38	0.181
652.82	0.182
653.27	0.181
653.72	0.182
654.16	0.181
654.61	0.181
655.06	0.180
655.50	0.179
655.95	0.177
656.39	0.175
656.84	0.176
657.29	0.182
657.73	0.180
658.18	0.180
658.62	0.178
659.07	0.179
659.52	0.181
659.96	0.179
660.41	0.180
660.85	0.178
661.30	0.179
661.74	0.179
662.19	0.178
662.64	0.176
663.08	0.178
663.53	0.177
663.97	0.175
664.42	0.176
664.86	0.177
665.31	0.176
665.75	0.175
666.20	0.177
666.65	0.177
667.09	0.175
667.54	0.175
667.98	0.175
668.43	0.175
668.87	0.173
669.32	0.172
669.76	0.173
670.21	0.177
670.65	0.171
671.10	0.174
671.54	0.172
671.99	0.173
672.43	0.172
672.88	0.172
673.32	0.172
673.77	0.170
674.21	0.170
674.66	0.171
675.10	0.171
675.55	0.167
675.99	0.171
676.44	0.168
676.88	0.169
677.33	0.169
677.77	0.168
678.22	0.166
678.66	0.167
679.11	0.167
679.55	0.169
679.99	0.167
680.44	0.167
680.88	0.166
681.33	0.166
681.77	0.165
682.22	0.166
682.66	0.167
683.11	0.166
683.55	0.166
683.99	0.166
684.44	0.164
684.88	0.163
685.33	0.164
685.77	0.165
686.21	0.165
686.66	0.162
687.10	0.161
687.55	0.162
687.99	0.164
688.44	0.164
688.88	0.163
689.32	0.165
689.77	0.162
690.21	0.161
690.65	0.161
691.10	0.162
691.54	0.161
691.99	0.161
692.43	0.161
692.87	0.160
693.32	0.160
693.76	0.160
694.20	0.160
694.65	0.160
695.09	0.163
695.53	0.159
695.98	0.160
696.42	0.161
696.86	0.160
697.31	0.157
697.75	0.159
698.19	0.157
698.64	0.158
699.08	0.158
699.52	0.156
699.97	0.158
700.41	0.158
700.85	0.159
701.30	0.157
701.74	0.158
702.18	0.158
702.63	0.156
703.07	0.157
703.51	0.159
703.96	0.155
704.40	0.157
704.84	0.157
705.28	0.157
705.73	0.156
706.17	0.155
706.61	0.154
707.06	0.154
707.50	0.157
707.94	0.155
708.38	0.154
708.83	0.156
709.27	0.154
709.71	0.155
710.15	0.155
710.60	0.154
711.04	0.152
711.48	0.155
711.92	0.154
712.37	0.154
712.81	0.155
713.25	0.155
713.69	0.154
714.13	0.156
714.58	0.154
715.02	0.153
715.46	0.153
715.90	0.153
716.35	0.153
716.79	0.154
717.23	0.156
717.67	0.155
718.11	0.155
718.56	0.155
719.00	0.152
719.44	0.153
719.88	0.152
720.32	0.151
720.76	0.156
721.21	0.152
721.65	0.153
722.09	0.150
722.53	0.153
722.97	0.154
723.41	0.151
723.86	0.153
724.30	0.151
724.74	0.153
725.18	0.151
725.62	0.151
726.06	0.152
726.50	0.150
726.95	0.148
727.39	0.150
727.83	0.150
728.27	0.151
728.71	0.151
729.15	0.150
729.59	0.151
730.03	0.150
730.48	0.152
730.92	0.151
731.36	0.151
731.80	0.152
732.24	0.151
732.68	0.153
733.12	0.147
733.56	0.151
734.00	0.153
734.44	0.153
734.89	0.151
735.33	0.152
735.77	0.153
736.21	0.153
736.65	0.150
737.09	0.154
737.53	0.153
737.97	0.151
738.41	0.152
738.85	0.152
739.29	0.151
739.73	0.151
740.17	0.153
740.61	0.150
741.05	0.151
741.49	0.152
741.93	0.150
742.37	0.148
742.81	0.151
743.26	0.151
743.70	0.151
744.14	0.153
744.58	0.150
745.02	0.150
745.46	0.151
745.90	0.149
746.34	0.150
746.78	0.151
747.22	0.149
747.66	0.150
748.10	0.150
748.54	0.150
748.98	0.148
749.42	0.149
749.86	0.149
750.29	0.146
750.73	0.146
751.17	0.145
751.61	0.145
752.05	0.147
752.49	0.146
752.93	0.144
753.37	0.146
753.81	0.146
754.25	0.146
754.69	0.145
755.13	0.146
755.57	0.146
756.01	0.147
756.45	0.144
756.89	0.145
757.33	0.145
757.77	0.145
758.21	0.144
758.64	0.145
759.08	0.143
759.52	0.145
759.96	0.147
760.40	0.145
760.84	0.144
761.28	0.144
761.72	0.148
762.16	0.145
762.60	0.144
763.03	0.145
763.47	0.144
763.91	0.142
764.35	0.142
764.79	0.141
765.23	0.141
765.67	0.145
766.11	0.139
766.54	0.140
766.98	0.142
767.42	0.143
767.86	0.141
768.30	0.140
768.74	0.143
769.17	0.145
769.61	0.143
770.05	0.140
770.49	0.142
770.93	0.143
771.37	0.140
771.80	0.140
772.24	0.140
772.68	0.142
773.12	0.139
773.56	0.141
774.00	0.141
774.43	0.139
774.87	0.139
775.31	0.138
775.75	0.141
776.19	0.139
776.62	0.138
777.06	0.139
777.50	0.140
777.94	0.136
778.37	0.138
778.81	0.141
779.25	0.140
779.69	0.140
780.13	0.141
780.56	0.138
781.00	0.138
781.44	0.140
781.88	0.137
782.31	0.137
782.75	0.135
783.19	0.141
783.63	0.135
784.06	0.134
784.50	0.138
784.94	0.137
785.37	0.135
785.81	0.139
786.25	0.139
786.69	0.135
787.12	0.137
787.56	0.134
788.00	0.138
788.43	0.139
788.87	0.137
789.31	0.136
789.75	0.135
790.18	0.136
790.62	0.132
791.06	0.134
791.49	0.135
791.93	0.134
792.37	0.136
792.80	0.133
793.24	0.134
793.68	0.136
794.11	0.136
794.55	0.138
794.99	0.135
795.42	0.134
795.86	0.138
796.30	0.132
796.73	0.135
797.17	0.134
797.61	0.135
798.04	0.133
798.48	0.132
798.91	0.131
799.35	0.136
799.79	0.138
800.22	0.132
800.66	0.132
801.10	0.133
801.53	0.133
801.97	0.138
802.40	0.136
802.84	0.135
803.28	0.132
803.71	0.133
804.15	0.133
804.58	0.135
805.02	0.133
805.46	0.133
805.89	0.134
806.33	0.137
806.76	0.131
807.20	0.135
807.63	0.133
808.07	0.136
808.51	0.129
808.94	0.130
809.38	0.131
809.81	0.128
810.25	0.133
810.68	0.134
811.12	0.132
811.55	0.135
811.99	0.134
812.42	0.136
812.86	0.133
813.29	0.129
813.73	0.130
814.17	0.131
814.60	0.128
815.04	0.129
815.47	0.132
815.91	0.127
816.34	0.130
816.78	0.133
817.21	0.134
817.65	0.134
818.08	0.128
818.52	0.136
818.95	0.133
819.39	0.130
819.82	0.131
820.25	0.133
820.69	0.127
821.12	0.134
821.56	0.129
821.99	0.129
822.43	0.127
822.86	0.135
823.30	0.134
823.73	0.127
824.17	0.130
824.60	0.128
825.04	0.133
825.47	0.127
825.90	0.132
826.34	0.132
826.77	0.128
827.21	0.127
827.64	0.130
828.08	0.130
828.51	0.129
828.94	0.130
829.38	0.130
829.81	0.131
830.25	0.133
830.68	0.133
831.11	0.133
831.55	0.134
831.98	0.137
832.42	0.132
832.85	0.135
833.28	0.131
833.72	0.130
834.15	0.135
834.58	0.134
835.02	0.136
835.45	0.139
835.88	0.138
836.32	0.136
836.75	0.135
837.19	0.137
837.62	0.138
838.05	0.130
838.49	0.133
838.92	0.135
839.35	0.135
839.79	0.135
840.22	0.133
840.65	0.135
841.09	0.135
841.52	0.134
841.95	0.132
842.39	0.136
842.82	0.135
843.25	0.132
843.68	0.133
844.12	0.132
844.55	0.135
844.98	0.130
845.42	0.136
845.85	0.132
846.28	0.133
846.71	0.132
847.15	0.138
847.58	0.137
848.01	0.139
848.45	0.139
848.88	0.136
849.31	0.134
849.74	0.137
850.18	0.133
850.61	0.132
851.04	0.134
851.47	0.137
851.91	0.134
852.34	0.136
852.77	0.137
853.20	0.135
853.64	0.132
854.07	0.136
854.50	0.135
854.93	0.133
855.36	0.137
855.80	0.132
856.23	0.135
856.66	0.136
857.09	0.138
857.52	0.140
857.96	0.129
858.39	0.132
858.82	0.131
859.25	0.138
859.68	0.131
860.12	0.133
860.55	0.137
860.98	0.141
861.41	0.130
861.84	0.136
862.27	0.132
862.71	0.135
863.14	0.133
863.57	0.132
864.00	0.134
864.43	0.141
864.86	0.136
865.30	0.142
865.73	0.140
866.16	0.134
866.59	0.135
867.02	0.133
867.45	0.133
867.88	0.137
868.31	0.131
868.75	0.138
869.18	0.137
869.61	0.138
870.04	0.134
870.47	0.138
870.90	0.136
871.33	0.136
871.76	0.135
872.19	0.140
872.62	0.136
873.06	0.132
873.49	0.142
873.92	0.134
874.35	0.138
874.78	0.138
875.21	0.135
875.64	0.131
876.07	0.141
876.50	0.136
876.93	0.138
877.36	0.139
877.79	0.141
878.22	0.138
878.65	0.140
879.08	0.134
879.51	0.142
879.94	0.138
880.37	0.140
880.80	0.142
881.23	0.134
881.67	0.141
882.10	0.137
882.53	0.135
882.96	0.138
883.39	0.135
883.82	0.133
884.25	0.140
884.68	0.134
885.11	0.138
885.54	0.138
885.97	0.135
886.39	0.133
886.82	0.139
887.25	0.139
887.68	0.135
888.11	0.134
888.54	0.134
888.97	0.147
889.40	0.138
889.83	0.133
890.26	0.135
890.69	0.134
891.12	0.138
891.55	0.139
891.98	0.137
892.41	0.134
892.84	0.138
893.27	0.139
893.70	0.138
894.13	0.140
894.56	0.137
894.98	0.142
895.41	0.141
895.84	0.140
896.27	0.141
896.70	0.140
897.13	0.143
897.56	0.139
897.99	0.142
898.42	0.135
898.85	0.141
899.27	0.140
899.70	0.145
900.13	0.140
900.56	0.140
900.99	0.140
901.42	0.142
901.85	0.141
902.28	0.141
902.70	0.141
903.13	0.143
903.56	0.137
903.99	0.135
904.42	0.140
904.85	0.143
905.27	0.139
905.70	0.138
906.13	0.141
906.56	0.136
906.99	0.138
907.42	0.140
907.84	0.138
908.27	0.141
908.70	0.140
909.13	0.139
909.56	0.139
909.98	0.140
910.41	0.140
910.84	0.139
911.27	0.144
911.70	0.139
912.12	0.140
912.55	0.139
912.98	0.141
913.41	0.138
913.84	0.142
914.26	0.135
914.69	0.138
915.12	0.143
915.55	0.137
915.97	0.139
916.40	0.140
916.83	0.138
917.26	0.143
917.68	0.141
918.11	0.142
918.54	0.136
918.97	0.138
919.39	0.138
919.82	0.141
920.25	0.139
920.67	0.138
921.10	0.142
921.53	0.142
921.96	0.142
922.38	0.143
922.81	0.145
923.24	0.147
923.66	0.140
924.09	0.147
924.52	0.150
924.94	0.142
925.37	0.144
925.80	0.144
926.22	0.144
926.65	0.143
927.08	0.147
927.50	0.147
927.93	0.150
928.36	0.147
928.78	0.147
929.21	0.146
929.64	0.150
930.06	0.158
930.49	0.153
930.92	0.156
931.34	0.153
931.77	0.154
932.20	0.158
932.62	0.158
933.05	0.157
933.47	0.158
933.90	0.162
934.33	0.155
934.75	0.156
935.18	0.160
935.61	0.168
936.03	0.163
936.46	0.165
936.88	0.164
937.31	0.168
937.73	0.168
938.16	0.167
938.59	0.176
939.01	0.174
939.44	0.175
939.86	0.182
940.29	0.183
940.71	0.178
941.14	0.186
941.57	0.185
941.99	0.180
942.42	0.187
942.84	0.191
943.27	0.196
943.69	0.192
944.12	0.198
944.54	0.203
944.97	0.199
945.39	0.193
945.82	0.204
946.24	0.212
946.67	0.206
947.09	0.209
947.52	0.204
947.94	0.210
948.37	0.207
948.79	0.215
949.22	0.218
949.64	0.215
950.07	0.222
950.49	0.229
950.92	0.229
951.34	0.223
951.77	0.226
952.19	0.224
952.62	0.245
953.04	0.238
953.47	0.246
953.89	0.242
954.32	0.249
954.74	0.251
955.17	0.257
955.59	0.261
956.01	0.256
956.44	0.262
956.86	0.267
957.29	0.263
957.71	0.271
958.14	0.272
958.56	0.270
958.98	0.275
959.41	0.270
959.83	0.275
960.26	0.277
960.68	0.279
961.10	0.285
961.53	0.286
961.95	0.283
962.38	0.286
962.80	0.278
963.22	0.288
963.65	0.285
964.07	0.291
964.50	0.293
964.92	0.291
965.34	0.290
965.77	0.289
966.19	0.295
966.61	0.293
967.04	0.293
967.46	0.292
967.88	0.307
968.31	0.290
968.73	0.288
969.15	0.291
969.58	0.294
970.00	0.295
970.42	0.295
970.85	0.288
971.27	0.293
971.69	0.293
972.12	0.298
972.54	0.298
972.96	0.289
973.39	0.298
973.81	0.302
974.23	0.297
974.65	0.295
975.08	0.300
975.50	0.298
975.92	0.298
976.35	0.296
976.77	0.296
977.19	0.305
977.61	0.294
978.04	0.297
978.46	0.308
978.88	0.298
979.30	0.300
979.73	0.298
980.15	0.305
980.57	0.301
980.99	0.301
981.42	0.299
981.84	0.304
982.26	0.294
982.68	0.297
983.11	0.296
983.53	0.299
983.95	0.299
984.37	0.296
984.79	0.299
985.22	0.297
985.64	0.296
986.06	0.292
986.48	0.292
986.90	0.290
987.33	0.290
987.75	0.291
988.17	0.291
988.59	0.287
989.01	0.290
989.43	0.290
989.86	0.286
990.28	0.297
990.70	0.285
991.12	0.290
991.54	0.286
991.96	0.285
992.39	0.292
992.81	0.282
993.23	0.284
993.65	0.283
994.07	0.284
994.49	0.284
994.91	0.286
995.34	0.282
995.76	0.275
996.18	0.285
996.60	0.276
997.02	0.284
997.44	0.274
997.86	0.279
998.28	0.274
998.70	0.280
999.12	0.277
999.55	0.275
999.97	0.272
1000.39	0.278
1000.81	0.265
1001.23	0.270
1001.65	0.269
1002.07	0.272
1002.49	0.270
1002.91	0.266
1003.33	0.272
1003.75	0.266
1004.17	0.265
1004.59	0.259
1005.01	0.262
1005.43	0.261
1005.85	0.266
1006.28	0.265
1006.70	0.261
1007.12	0.265
1007.54	0.265
1007.96	0.263
1008.38	0.263
1008.80	0.263
1009.22	0.253
1009.64	0.247
1010.06	0.253
1010.48	0.253
1010.90	0.248
1011.32	0.257
1011.74	0.251
1012.16	0.260
1012.58	0.249
1013.00	0.242
1013.42	0.245
1013.84	0.242
1014.26	0.243
1014.67	0.254
1015.09	0.239
1015.51	0.244
1015.93	0.243
1016.35	0.242
1016.77	0.238
1017.19	0.231
1017.61	0.231
1018.03	0.243
1018.45	0.230
1018.87	0.244
1019.29	0.236
1019.71	0.239
1020.13	0.231
1020.55	0.237
1020.97	0.230
1021.38	0.237
1021.80	0.221
1022.22	0.221
1022.64	0.228
1023.06	0.221
1023.48	0.224
1023.90	0.218
1024.32	0.211
1024.74	0.219
1025.15	0.216
1025.57	0.216
1025.99	0.228
1026.41	0.223
1026.83	0.217
1027.25	0.229
1027.67	0.228
1028.08	0.216
1028.50	0.216
1028.92	0.206
1029.34	0.222
1029.76	0.228
1030.18	0.215
1030.60	0.215
1031.01	0.216
1031.43	0.204
1031.85	0.221
1032.27	0.209
1032.69	0.211
1033.10	0.219
1033.52	0.206
1033.94	0.194
1034.36	0.207
1034.78	0.207
1035.19	0.205
1035.61	0.211
1036.03	0.204
1036.45	0.206
1036.87	0.206
1037.28	0.203
1037.70	0.216
1038.12	0.190
1038.54	0.195
1038.95	0.193
1039.37	0.199
1039.79	0.194
1040.21	0.195
1040.62	0.202
1041.04	0.199
1041.46	0.183
1041.88	0.196
1042.29	0.218
1042.71	0.185
1043.13	0.200
1043.55	0.206
1043.96	0.213
1044.38	0.200
1044.80	0.196
1045.21	0.193
1045.63	0.195
1046.05	0.176
1046.47	0.194
1046.88	0.189
1047.30	0.192
1047.72	0.174
1048.13	0.205
1048.55	0.182
1048.97	0.173
1049.38	0.198
1049.80	0.207
1050.22	0.192
1050.63	0.170
1051.05	0.230
1051.47	0.230
1051.88	0.190
1052.30	0.197
1052.72	0.210
1053.13	0.206
1053.55	0.202
1053.97	0.203
1054.38	0.203
1054.80	0.214
1055.21	0.199
1055.63	0.192
1056.05	0.198
1056.46	0.209
1056.88	0.223
1057.29	0.192
1057.71	0.210
1058.13	0.211
1058.54	0.214
1058.96	0.166
1059.37	0.214
1059.79	0.214
1060.21	0.212
1060.62	0.207
1061.04	0.221
1061.45	0.236
1061.87	0.208
1062.28	0.203
1062.70	0.208
1063.12	0.216
1063.53	0.216
1063.95	0.212
1064.36	0.240
1064.78	0.259
1065.19	0.276
1065.61	0.210
1066.02	0.238
1066.44	0.276
1066.85	0.277
1067.27	0.224
1067.68	0.299
1068.10	0.245
1068.51	0.325
1068.93	0.265
1069.35	0.424
1069.76	0.335
1070.17	0.291
1070.59	0.308
1071.00	0.277
1071.42	0.301
1071.83	0.239
1072.25	0.422
1072.66	0.228
1073.08	0.264
1073.49	0.427
1073.91	0.353
1074.32	0.558
1074.74	0.411
1075.15	0.454
1075.57	0.433
1075.98	0.516
1076.40	0.411
1076.81	0.571
1077.22	0.485
1077.64	0.345
1078.05	0.687
1078.47	0.427
1078.88	0.624
1079.30	0.903
1079.71	-0.000
1080.12	-0.000
1080.54	2.178
1080.95	0.595
1081.37	-0.000
1081.78	0.489
1082.19	1.064
1082.61	-0.000
1083.02	0.651
1083.44	1.404
1083.85	-0.000
1084.26	-0.000
1084.68	-0.000
1085.09	1.115
1085.50	-0.000
1085.92	-0.000
1086.33	0.996
1086.74	1.403
1087.16	-0.000
1087.57	-0.000
1087.98	1.226
1088.40	-0.000
1088.81	-0.000
1089.22	-0.000
1089.64	-0.000
1090.05	-0.000
1090.46	-0.000
1090.88	-0.000
1091.29	0.733
1091.70	-0.000
1092.12	-0.000
1092.53	0.733
1092.94	-0.000
1093.36	-0.000
1093.77	-0.000
1094.18	1.223
1094.59	-0.000
1095.01	-0.000
1095.42	1.627
1095.83	-0.000
1096.25	-0.000
1096.66	-0.000
1097.07	-0.000
1097.48	-0.000
1097.90	-0.000
1098.31	-0.000
1098.72	1.523
1099.13	-0.000
>>>>>End Processed Spectral Data<<<<<
