SpectraSuite Data File
++++++++++++++++++++++++++++++++++++
Date: Sun Apr 24 18:12:26 CEST 2016
User: spectrasuite
Dark Spectrum Present: Yes
Reference Spectrum Present: Yes
Number of Sampled Component Spectra: 1
Spectrometers: HR+C0708
Integration Time (usec): 1000 (HR+C0708)
Spectra Averaged: 10 (HR+C0708)
Boxcar Smoothing: 0 (HR+C0708)
Correct for Electrical Dark: No (HR+C0708)
Strobe/Lamp Enabled: No (HR+C0708)
Correct for Detector Non-linearity: No (HR+C0708)
Correct for Stray Light: No (HR+C0708)
Number of Pixels in Processed Spectrum: 2048
>>>>>Begin Processed Spectral Data<<<<<
188.76	-0.000
189.23	-0.000
189.70	-0.000
190.17	-0.000
190.64	-0.000
191.12	-0.000
191.59	-0.000
192.06	-0.000
192.53	-0.000
193.01	-0.000
193.48	-0.000
193.95	-0.000
194.42	-0.000
194.90	-0.000
195.37	-0.000
195.84	-0.000
196.31	-0.000
196.78	-0.000
197.26	-0.000
197.73	-0.000
198.20	-0.000
198.67	-0.000
199.14	-0.000
199.62	-0.000
200.09	-0.000
200.56	-0.000
201.03	-0.000
201.50	-0.000
201.97	-0.000
202.45	-0.000
202.92	0.992
203.39	1.219
203.86	-0.000
204.33	-0.000
204.80	-0.000
205.28	-0.000
205.75	-0.000
206.22	-0.000
206.69	-0.000
207.16	-0.000
207.63	-0.000
208.11	0.978
208.58	1.320
209.05	-0.000
209.52	-0.000
209.99	1.777
210.46	-0.000
210.93	-0.000
211.41	-0.000
211.88	2.099
212.35	-0.000
212.82	-0.000
213.29	-0.000
213.76	0.889
214.23	-0.000
214.70	-0.000
215.18	-0.000
215.65	1.744
216.12	1.257
216.59	-0.000
217.06	-0.000
217.53	-0.000
218.00	-0.000
218.47	-0.000
218.94	-0.000
219.41	-0.000
219.89	-0.000
220.36	-0.000
220.83	-0.000
221.30	1.368
221.77	1.604
222.24	-0.000
222.71	1.732
223.18	-0.000
223.65	-0.000
224.12	-0.000
224.59	-0.000
225.06	-0.000
225.54	-0.000
226.01	1.392
226.48	1.591
226.95	-0.000
227.42	-0.000
227.89	-0.000
228.36	1.721
228.83	-0.000
229.30	-0.000
229.77	-0.000
230.24	2.426
230.71	-0.000
231.18	-0.000
231.65	2.226
232.12	2.297
232.59	2.588
233.06	-0.000
233.53	1.959
234.00	-0.000
234.47	-0.000
234.94	-0.000
235.41	2.368
235.88	-0.000
236.35	-0.000
236.82	-0.000
237.29	-0.000
237.76	-0.000
238.23	-0.000
238.70	3.025
239.17	2.519
239.64	3.212
240.11	-0.000
240.58	4.441
241.05	-0.000
241.52	-0.000
241.99	-0.000
242.46	3.117
242.93	-0.000
243.40	3.120
243.87	2.815
244.34	2.693
244.81	3.049
245.28	3.167
245.75	-0.000
246.22	3.463
246.69	-0.000
247.16	2.939
247.63	2.868
248.10	-0.000
248.57	3.131
249.04	-0.000
249.51	3.591
249.98	-0.000
250.45	3.713
250.92	4.009
251.39	3.374
251.85	-0.000
252.32	-0.000
252.79	3.261
253.26	2.911
253.73	-0.000
254.20	2.584
254.67	2.771
255.14	2.832
255.61	3.512
256.08	3.794
256.55	2.757
257.02	2.770
257.49	2.935
257.95	2.682
258.42	2.724
258.89	2.522
259.36	2.544
259.83	2.544
260.30	2.586
260.77	2.543
261.24	2.462
261.71	2.430
262.17	2.400
262.64	2.319
263.11	2.304
263.58	2.425
264.05	2.261
264.52	2.240
264.99	2.282
265.46	2.253
265.92	2.241
266.39	2.206
266.86	2.171
267.33	2.148
267.80	2.109
268.27	2.174
268.74	2.140
269.20	2.155
269.67	2.081
270.14	2.019
270.61	2.001
271.08	2.003
271.55	2.000
272.01	2.007
272.48	1.970
272.95	1.965
273.42	1.934
273.89	1.951
274.36	1.911
274.82	1.871
275.29	1.880
275.76	1.862
276.23	1.853
276.70	1.856
277.16	1.843
277.63	1.799
278.10	1.801
278.57	1.788
279.04	1.799
279.50	1.797
279.97	1.781
280.44	1.743
280.91	1.709
281.38	1.709
281.84	1.734
282.31	1.706
282.78	1.712
283.25	1.693
283.72	1.665
284.18	1.680
284.65	1.674
285.12	1.657
285.59	1.642
286.05	1.641
286.52	1.629
286.99	1.621
287.46	1.607
287.92	1.598
288.39	1.611
288.86	1.594
289.33	1.578
289.79	1.577
290.26	1.572
290.73	1.564
291.20	1.532
291.66	1.537
292.13	1.535
292.60	1.526
293.07	1.502
293.53	1.501
294.00	1.498
294.47	1.480
294.93	1.482
295.40	1.463
295.87	1.458
296.34	1.453
296.80	1.434
297.27	1.434
297.74	1.426
298.20	1.418
298.67	1.407
299.14	1.406
299.60	1.393
300.07	1.390
300.54	1.366
301.01	1.374
301.47	1.351
301.94	1.351
302.41	1.348
302.87	1.332
303.34	1.339
303.81	1.317
304.27	1.307
304.74	1.295
305.21	1.298
305.67	1.295
306.14	1.280
306.61	1.282
307.07	1.263
307.54	1.270
308.01	1.257
308.47	1.252
308.94	1.252
309.40	1.245
309.87	1.231
310.34	1.228
310.80	1.222
311.27	1.213
311.74	1.212
312.20	1.202
312.67	1.201
313.13	1.183
313.60	1.188
314.07	1.185
314.53	1.168
315.00	1.164
315.47	1.164
315.93	1.154
316.40	1.148
316.86	1.147
317.33	1.143
317.80	1.137
318.26	1.132
318.73	1.133
319.19	1.130
319.66	1.117
320.13	1.112
320.59	1.107
321.06	1.105
321.52	1.101
321.99	1.095
322.45	1.080
322.92	1.077
323.39	1.084
323.85	1.075
324.32	1.070
324.78	1.064
325.25	1.060
325.71	1.061
326.18	1.047
326.64	1.056
327.11	1.052
327.58	1.045
328.04	1.037
328.51	1.045
328.97	1.033
329.44	1.025
329.90	1.023
330.37	1.014
330.83	1.018
331.30	1.011
331.76	1.011
332.23	1.003
332.69	0.994
333.16	0.989
333.62	0.991
334.09	0.981
334.56	0.982
335.02	0.975
335.49	0.969
335.95	0.964
336.42	0.960
336.88	0.954
337.35	0.957
337.81	0.952
338.28	0.949
338.74	0.946
339.20	0.935
339.67	0.938
340.13	0.934
340.60	0.929
341.06	0.923
341.53	0.915
341.99	0.914
342.46	0.912
342.92	0.901
343.39	0.893
343.85	0.900
344.32	0.889
344.78	0.887
345.25	0.886
345.71	0.886
346.17	0.877
346.64	0.877
347.10	0.865
347.57	0.858
348.03	0.850
348.50	0.843
348.96	0.838
349.43	0.835
349.89	0.830
350.35	0.827
350.82	0.821
351.28	0.816
351.75	0.804
352.21	0.803
352.67	0.796
353.14	0.791
353.60	0.784
354.07	0.776
354.53	0.760
355.00	0.758
355.46	0.756
355.92	0.739
356.39	0.736
356.85	0.737
357.31	0.728
357.78	0.721
358.24	0.710
358.71	0.705
359.17	0.706
359.63	0.696
360.10	0.690
360.56	0.692
361.03	0.682
361.49	0.682
361.95	0.674
362.42	0.669
362.88	0.665
363.34	0.657
363.81	0.654
364.27	0.655
364.73	0.645
365.20	0.644
365.66	0.647
366.12	0.644
366.59	0.639
367.05	0.635
367.51	0.631
367.98	0.624
368.44	0.621
368.90	0.624
369.37	0.622
369.83	0.615
370.29	0.613
370.76	0.614
371.22	0.609
371.68	0.606
372.15	0.604
372.61	0.603
373.07	0.602
373.54	0.598
374.00	0.595
374.46	0.595
374.92	0.595
375.39	0.588
375.85	0.589
376.31	0.592
376.78	0.587
377.24	0.586
377.70	0.581
378.16	0.579
378.63	0.579
379.09	0.576
379.55	0.576
380.01	0.576
380.48	0.574
380.94	0.574
381.40	0.564
381.87	0.564
382.33	0.565
382.79	0.560
383.25	0.562
383.72	0.558
384.18	0.560
384.64	0.558
385.10	0.553
385.56	0.551
386.03	0.552
386.49	0.550
386.95	0.545
387.41	0.546
387.88	0.545
388.34	0.544
388.80	0.542
389.26	0.541
389.72	0.538
390.19	0.540
390.65	0.536
391.11	0.534
391.57	0.532
392.04	0.530
392.50	0.529
392.96	0.526
393.42	0.526
393.88	0.526
394.34	0.522
394.81	0.522
395.27	0.522
395.73	0.518
396.19	0.515
396.65	0.513
397.12	0.512
397.58	0.516
398.04	0.510
398.50	0.509
398.96	0.509
399.42	0.511
399.89	0.505
400.35	0.504
400.81	0.502
401.27	0.503
401.73	0.500
402.19	0.496
402.65	0.495
403.12	0.492
403.58	0.494
404.04	0.492
404.50	0.495
404.96	0.491
405.42	0.487
405.88	0.486
406.34	0.487
406.81	0.484
407.27	0.484
407.73	0.482
408.19	0.480
408.65	0.478
409.11	0.477
409.57	0.479
410.03	0.475
410.49	0.477
410.96	0.474
411.42	0.473
411.88	0.469
412.34	0.468
412.80	0.471
413.26	0.464
413.72	0.466
414.18	0.464
414.64	0.461
415.10	0.463
415.56	0.462
416.02	0.461
416.48	0.460
416.95	0.455
417.41	0.456
417.87	0.456
418.33	0.451
418.79	0.449
419.25	0.450
419.71	0.449
420.17	0.451
420.63	0.445
421.09	0.443
421.55	0.444
422.01	0.445
422.47	0.449
422.93	0.448
423.39	0.441
423.85	0.442
424.31	0.438
424.77	0.435
425.23	0.437
425.69	0.439
426.15	0.436
426.61	0.435
427.07	0.430
427.53	0.430
427.99	0.430
428.45	0.430
428.91	0.431
429.37	0.427
429.83	0.422
430.29	0.426
430.75	0.427
431.21	0.426
431.67	0.426
432.13	0.421
432.59	0.417
433.05	0.422
433.51	0.416
433.97	0.417
434.43	0.416
434.89	0.420
435.35	0.417
435.81	0.416
436.27	0.411
436.73	0.414
437.19	0.407
437.65	0.414
438.11	0.413
438.57	0.409
439.03	0.410
439.48	0.409
439.94	0.406
440.40	0.399
440.86	0.408
441.32	0.404
441.78	0.404
442.24	0.399
442.70	0.403
443.16	0.398
443.62	0.400
444.08	0.399
444.54	0.396
444.99	0.393
445.45	0.394
445.91	0.394
446.37	0.395
446.83	0.392
447.29	0.391
447.75	0.388
448.21	0.390
448.67	0.388
449.12	0.388
449.58	0.389
450.04	0.385
450.50	0.385
450.96	0.385
451.42	0.382
451.88	0.380
452.34	0.381
452.79	0.381
453.25	0.382
453.71	0.378
454.17	0.375
454.63	0.377
455.09	0.374
455.55	0.375
456.00	0.377
456.46	0.374
456.92	0.373
457.38	0.373
457.84	0.369
458.30	0.370
458.75	0.367
459.21	0.364
459.67	0.370
460.13	0.366
460.59	0.366
461.04	0.365
461.50	0.364
461.96	0.364
462.42	0.360
462.88	0.362
463.33	0.361
463.79	0.359
464.25	0.361
464.71	0.360
465.17	0.360
465.62	0.359
466.08	0.358
466.54	0.357
467.00	0.357
467.46	0.357
467.91	0.353
468.37	0.354
468.83	0.354
469.29	0.353
469.74	0.353
470.20	0.352
470.66	0.353
471.12	0.348
471.57	0.349
472.03	0.346
472.49	0.349
472.95	0.348
473.40	0.345
473.86	0.341
474.32	0.343
474.78	0.346
475.23	0.344
475.69	0.344
476.15	0.341
476.60	0.341
477.06	0.342
477.52	0.340
477.98	0.337
478.43	0.338
478.89	0.338
479.35	0.336
479.80	0.338
480.26	0.336
480.72	0.331
481.18	0.335
481.63	0.332
482.09	0.335
482.55	0.333
483.00	0.330
483.46	0.330
483.92	0.330
484.37	0.329
484.83	0.327
485.29	0.327
485.74	0.328
486.20	0.327
486.66	0.325
487.11	0.326
487.57	0.325
488.03	0.325
488.48	0.325
488.94	0.322
489.40	0.322
489.85	0.324
490.31	0.322
490.77	0.322
491.22	0.322
491.68	0.319
492.13	0.319
492.59	0.319
493.05	0.318
493.50	0.318
493.96	0.317
494.42	0.316
494.87	0.312
495.33	0.314
495.78	0.316
496.24	0.315
496.70	0.312
497.15	0.312
497.61	0.313
498.06	0.311
498.52	0.309
498.98	0.308
499.43	0.310
499.89	0.311
500.34	0.305
500.80	0.307
501.25	0.307
501.71	0.306
502.17	0.307
502.62	0.308
503.08	0.306
503.53	0.305
503.99	0.304
504.44	0.304
504.90	0.302
505.36	0.300
505.81	0.303
506.27	0.304
506.72	0.302
507.18	0.300
507.63	0.298
508.09	0.301
508.54	0.298
509.00	0.297
509.45	0.300
509.91	0.297
510.36	0.297
510.82	0.298
511.27	0.295
511.73	0.297
512.19	0.295
512.64	0.291
513.10	0.293
513.55	0.294
514.01	0.292
514.46	0.292
514.92	0.290
515.37	0.292
515.83	0.292
516.28	0.289
516.73	0.290
517.19	0.289
517.64	0.286
518.10	0.287
518.55	0.286
519.01	0.288
519.46	0.286
519.92	0.287
520.37	0.283
520.83	0.282
521.28	0.286
521.74	0.285
522.19	0.285
522.65	0.283
523.10	0.284
523.55	0.283
524.01	0.283
524.46	0.282
524.92	0.279
525.37	0.280
525.83	0.279
526.28	0.280
526.73	0.280
527.19	0.282
527.64	0.280
528.10	0.279
528.55	0.275
529.01	0.280
529.46	0.279
529.91	0.274
530.37	0.276
530.82	0.275
531.28	0.275
531.73	0.274
532.18	0.274
532.64	0.275
533.09	0.272
533.54	0.273
534.00	0.272
534.45	0.275
534.91	0.273
535.36	0.274
535.81	0.274
536.27	0.269
536.72	0.273
537.17	0.269
537.63	0.269
538.08	0.269
538.54	0.271
538.99	0.269
539.44	0.270
539.90	0.268
540.35	0.268
540.80	0.268
541.26	0.267
541.71	0.267
542.16	0.267
542.62	0.266
543.07	0.265
543.52	0.267
543.98	0.267
544.43	0.266
544.88	0.264
545.34	0.264
545.79	0.264
546.24	0.262
546.69	0.266
547.15	0.264
547.60	0.263
548.05	0.264
548.51	0.261
548.96	0.263
549.41	0.262
549.86	0.265
550.32	0.264
550.77	0.263
551.22	0.261
551.68	0.261
552.13	0.261
552.58	0.257
553.03	0.260
553.49	0.262
553.94	0.258
554.39	0.260
554.84	0.259
555.30	0.259
555.75	0.259
556.20	0.259
556.65	0.258
557.11	0.258
557.56	0.256
558.01	0.257
558.46	0.259
558.92	0.257
559.37	0.257
559.82	0.256
560.27	0.258
560.72	0.256
561.18	0.256
561.63	0.255
562.08	0.254
562.53	0.256
562.99	0.257
563.44	0.256
563.89	0.253
564.34	0.255
564.79	0.254
565.25	0.253
565.70	0.253
566.15	0.252
566.60	0.253
567.05	0.253
567.50	0.253
567.96	0.251
568.41	0.254
568.86	0.253
569.31	0.253
569.76	0.252
570.21	0.251
570.67	0.252
571.12	0.251
571.57	0.250
572.02	0.249
572.47	0.248
572.92	0.251
573.37	0.251
573.83	0.249
574.28	0.250
574.73	0.250
575.18	0.252
575.63	0.252
576.08	0.247
576.53	0.251
576.98	0.252
577.44	0.245
577.89	0.250
578.34	0.248
578.79	0.250
579.24	0.249
579.69	0.247
580.14	0.247
580.59	0.248
581.04	0.247
581.49	0.247
581.95	0.247
582.40	0.246
582.85	0.248
583.30	0.248
583.75	0.247
584.20	0.248
584.65	0.247
585.10	0.247
585.55	0.248
586.00	0.248
586.45	0.247
586.90	0.249
587.35	0.249
587.80	0.248
588.25	0.248
588.71	0.249
589.16	0.248
589.61	0.248
590.06	0.248
590.51	0.249
590.96	0.248
591.41	0.248
591.86	0.247
592.31	0.248
592.76	0.249
593.21	0.247
593.66	0.248
594.11	0.249
594.56	0.248
595.01	0.251
595.46	0.250
595.91	0.248
596.36	0.251
596.81	0.249
597.26	0.250
597.71	0.249
598.16	0.250
598.61	0.250
599.06	0.250
599.51	0.252
599.96	0.252
600.41	0.251
600.86	0.249
601.31	0.252
601.76	0.252
602.21	0.252
602.65	0.251
603.10	0.249
603.55	0.250
604.00	0.252
604.45	0.249
604.90	0.253
605.35	0.250
605.80	0.252
606.25	0.253
606.70	0.252
607.15	0.253
607.60	0.252
608.05	0.250
608.50	0.251
608.95	0.250
609.39	0.254
609.84	0.254
610.29	0.249
610.74	0.250
611.19	0.249
611.64	0.253
612.09	0.252
612.54	0.250
612.99	0.251
613.44	0.251
613.88	0.253
614.33	0.252
614.78	0.249
615.23	0.251
615.68	0.252
616.13	0.253
616.58	0.248
617.03	0.250
617.47	0.251
617.92	0.250
618.37	0.249
618.82	0.251
619.27	0.251
619.72	0.250
620.17	0.248
620.61	0.249
621.06	0.248
621.51	0.250
621.96	0.248
622.41	0.251
622.86	0.250
623.30	0.249
623.75	0.248
624.20	0.250
624.65	0.247
625.10	0.248
625.54	0.249
625.99	0.249
626.44	0.249
626.89	0.249
627.34	0.251
627.78	0.249
628.23	0.247
628.68	0.247
629.13	0.248
629.58	0.249
630.02	0.249
630.47	0.249
630.92	0.250
631.37	0.250
631.81	0.250
632.26	0.251
632.71	0.251
633.16	0.251
633.61	0.251
634.05	0.250
634.50	0.252
634.95	0.251
635.40	0.253
635.84	0.252
636.29	0.252
636.74	0.253
637.18	0.252
637.63	0.250
638.08	0.252
638.53	0.250
638.97	0.251
639.42	0.255
639.87	0.255
640.32	0.252
640.76	0.255
641.21	0.254
641.66	0.255
642.10	0.254
642.55	0.256
643.00	0.256
643.44	0.254
643.89	0.257
644.34	0.257
644.79	0.253
645.23	0.256
645.68	0.255
646.13	0.256
646.57	0.257
647.02	0.257
647.47	0.259
647.91	0.258
648.36	0.259
648.81	0.261
649.25	0.257
649.70	0.258
650.15	0.257
650.59	0.259
651.04	0.259
651.48	0.260
651.93	0.260
652.38	0.259
652.82	0.260
653.27	0.260
653.72	0.259
654.16	0.259
654.61	0.259
655.06	0.258
655.50	0.257
655.95	0.257
656.39	0.252
656.84	0.256
657.29	0.264
657.73	0.260
658.18	0.260
658.62	0.260
659.07	0.257
659.52	0.259
659.96	0.259
660.41	0.259
660.85	0.256
661.30	0.257
661.74	0.257
662.19	0.256
662.64	0.254
663.08	0.253
663.53	0.253
663.97	0.252
664.42	0.253
664.86	0.253
665.31	0.253
665.75	0.250
666.20	0.252
666.65	0.250
667.09	0.249
667.54	0.249
667.98	0.245
668.43	0.246
668.87	0.242
669.32	0.243
669.76	0.243
670.21	0.241
670.65	0.239
671.10	0.242
671.54	0.237
671.99	0.235
672.43	0.235
672.88	0.233
673.32	0.234
673.77	0.230
674.21	0.230
674.66	0.228
675.10	0.227
675.55	0.222
675.99	0.225
676.44	0.223
676.88	0.221
677.33	0.219
677.77	0.217
678.22	0.216
678.66	0.212
679.11	0.213
679.55	0.213
679.99	0.208
680.44	0.211
680.88	0.206
681.33	0.204
681.77	0.201
682.22	0.203
682.66	0.200
683.11	0.198
683.55	0.196
683.99	0.195
684.44	0.191
684.88	0.191
685.33	0.191
685.77	0.189
686.21	0.189
686.66	0.187
687.10	0.184
687.55	0.184
687.99	0.186
688.44	0.184
688.88	0.181
689.32	0.182
689.77	0.177
690.21	0.177
690.65	0.177
691.10	0.176
691.54	0.176
691.99	0.172
692.43	0.172
692.87	0.171
693.32	0.171
693.76	0.171
694.20	0.170
694.65	0.168
695.09	0.171
695.53	0.167
695.98	0.168
696.42	0.168
696.86	0.166
697.31	0.165
697.75	0.163
698.19	0.163
698.64	0.164
699.08	0.164
699.52	0.162
699.97	0.163
700.41	0.163
700.85	0.162
701.30	0.160
701.74	0.161
702.18	0.159
702.63	0.160
703.07	0.159
703.51	0.161
703.96	0.159
704.40	0.156
704.84	0.160
705.28	0.158
705.73	0.157
706.17	0.156
706.61	0.157
707.06	0.154
707.50	0.156
707.94	0.155
708.38	0.154
708.83	0.157
709.27	0.154
709.71	0.153
710.15	0.153
710.60	0.153
711.04	0.153
711.48	0.155
711.92	0.154
712.37	0.154
712.81	0.155
713.25	0.153
713.69	0.155
714.13	0.154
714.58	0.151
715.02	0.153
715.46	0.153
715.90	0.151
716.35	0.150
716.79	0.152
717.23	0.154
717.67	0.152
718.11	0.152
718.56	0.151
719.00	0.149
719.44	0.150
719.88	0.151
720.32	0.150
720.76	0.151
721.21	0.151
721.65	0.150
722.09	0.151
722.53	0.149
722.97	0.150
723.41	0.148
723.86	0.153
724.30	0.151
724.74	0.152
725.18	0.150
725.62	0.148
726.06	0.150
726.50	0.149
726.95	0.148
727.39	0.150
727.83	0.150
728.27	0.150
728.71	0.148
729.15	0.151
729.59	0.148
730.03	0.147
730.48	0.148
730.92	0.150
731.36	0.149
731.80	0.150
732.24	0.150
732.68	0.148
733.12	0.147
733.56	0.148
734.00	0.148
734.44	0.149
734.89	0.148
735.33	0.149
735.77	0.154
736.21	0.148
736.65	0.149
737.09	0.152
737.53	0.149
737.97	0.148
738.41	0.150
738.85	0.150
739.29	0.150
739.73	0.146
740.17	0.148
740.61	0.150
741.05	0.151
741.49	0.149
741.93	0.147
742.37	0.147
742.81	0.147
743.26	0.147
743.70	0.147
744.14	0.148
744.58	0.147
745.02	0.146
745.46	0.148
745.90	0.148
746.34	0.147
746.78	0.148
747.22	0.149
747.66	0.149
748.10	0.147
748.54	0.147
748.98	0.144
749.42	0.147
749.86	0.147
750.29	0.145
750.73	0.143
751.17	0.142
751.61	0.143
752.05	0.147
752.49	0.144
752.93	0.145
753.37	0.143
753.81	0.144
754.25	0.141
754.69	0.142
755.13	0.143
755.57	0.143
756.01	0.145
756.45	0.144
756.89	0.143
757.33	0.146
757.77	0.145
758.21	0.142
758.64	0.140
759.08	0.139
759.52	0.143
759.96	0.144
760.40	0.139
760.84	0.140
761.28	0.141
761.72	0.142
762.16	0.143
762.60	0.139
763.03	0.138
763.47	0.141
763.91	0.140
764.35	0.140
764.79	0.139
765.23	0.136
765.67	0.138
766.11	0.137
766.54	0.136
766.98	0.139
767.42	0.138
767.86	0.136
768.30	0.138
768.74	0.140
769.17	0.141
769.61	0.143
770.05	0.137
770.49	0.143
770.93	0.140
771.37	0.136
771.80	0.137
772.24	0.134
772.68	0.135
773.12	0.136
773.56	0.135
774.00	0.136
774.43	0.136
774.87	0.137
775.31	0.138
775.75	0.138
776.19	0.137
776.62	0.135
777.06	0.137
777.50	0.136
777.94	0.136
778.37	0.134
778.81	0.136
779.25	0.136
779.69	0.137
780.13	0.134
780.56	0.136
781.00	0.135
781.44	0.136
781.88	0.136
782.31	0.137
782.75	0.134
783.19	0.136
783.63	0.135
784.06	0.132
784.50	0.135
784.94	0.133
785.37	0.137
785.81	0.136
786.25	0.135
786.69	0.133
787.12	0.131
787.56	0.132
788.00	0.135
788.43	0.136
788.87	0.132
789.31	0.134
789.75	0.134
790.18	0.131
790.62	0.132
791.06	0.132
791.49	0.132
791.93	0.126
792.37	0.133
792.80	0.130
793.24	0.131
793.68	0.133
794.11	0.133
794.55	0.134
794.99	0.131
795.42	0.132
795.86	0.135
796.30	0.132
796.73	0.128
797.17	0.133
797.61	0.131
798.04	0.133
798.48	0.130
798.91	0.128
799.35	0.131
799.79	0.133
800.22	0.130
800.66	0.129
801.10	0.133
801.53	0.128
801.97	0.132
802.40	0.131
802.84	0.132
803.28	0.130
803.71	0.130
804.15	0.130
804.58	0.129
805.02	0.131
805.46	0.131
805.89	0.131
806.33	0.129
806.76	0.127
807.20	0.132
807.63	0.128
808.07	0.135
808.51	0.126
808.94	0.128
809.38	0.130
809.81	0.129
810.25	0.132
810.68	0.129
811.12	0.129
811.55	0.130
811.99	0.133
812.42	0.131
812.86	0.127
813.29	0.128
813.73	0.128
814.17	0.127
814.60	0.125
815.04	0.129
815.47	0.127
815.91	0.125
816.34	0.126
816.78	0.128
817.21	0.133
817.65	0.133
818.08	0.125
818.52	0.130
818.95	0.129
819.39	0.129
819.82	0.130
820.25	0.128
820.69	0.124
821.12	0.127
821.56	0.130
821.99	0.123
822.43	0.124
822.86	0.133
823.30	0.126
823.73	0.129
824.17	0.125
824.60	0.125
825.04	0.128
825.47	0.123
825.90	0.128
826.34	0.130
826.77	0.124
827.21	0.131
827.64	0.131
828.08	0.128
828.51	0.126
828.94	0.128
829.38	0.126
829.81	0.128
830.25	0.129
830.68	0.131
831.11	0.130
831.55	0.130
831.98	0.131
832.42	0.129
832.85	0.130
833.28	0.133
833.72	0.130
834.15	0.130
834.58	0.131
835.02	0.132
835.45	0.134
835.88	0.136
836.32	0.132
836.75	0.127
837.19	0.130
837.62	0.133
838.05	0.133
838.49	0.133
838.92	0.130
839.35	0.132
839.79	0.132
840.22	0.132
840.65	0.133
841.09	0.134
841.52	0.129
841.95	0.131
842.39	0.132
842.82	0.131
843.25	0.130
843.68	0.131
844.12	0.133
844.55	0.134
844.98	0.132
845.42	0.131
845.85	0.130
846.28	0.133
846.71	0.129
847.15	0.132
847.58	0.133
848.01	0.132
848.45	0.131
848.88	0.131
849.31	0.133
849.74	0.130
850.18	0.135
850.61	0.132
851.04	0.136
851.47	0.132
851.91	0.132
852.34	0.135
852.77	0.135
853.20	0.127
853.64	0.133
854.07	0.137
854.50	0.134
854.93	0.136
855.36	0.134
855.80	0.134
856.23	0.128
856.66	0.133
857.09	0.132
857.52	0.132
857.96	0.127
858.39	0.135
858.82	0.130
859.25	0.134
859.68	0.136
860.12	0.130
860.55	0.128
860.98	0.134
861.41	0.128
861.84	0.131
862.27	0.127
862.71	0.126
863.14	0.129
863.57	0.131
864.00	0.129
864.43	0.136
864.86	0.128
865.30	0.136
865.73	0.140
866.16	0.135
866.59	0.130
867.02	0.134
867.45	0.128
867.88	0.135
868.31	0.137
868.75	0.130
869.18	0.138
869.61	0.134
870.04	0.130
870.47	0.135
870.90	0.134
871.33	0.134
871.76	0.137
872.19	0.138
872.62	0.138
873.06	0.130
873.49	0.134
873.92	0.129
874.35	0.132
874.78	0.134
875.21	0.133
875.64	0.128
876.07	0.137
876.50	0.136
876.93	0.140
877.36	0.138
877.79	0.137
878.22	0.135
878.65	0.139
879.08	0.134
879.51	0.137
879.94	0.132
880.37	0.135
880.80	0.139
881.23	0.131
881.67	0.139
882.10	0.132
882.53	0.137
882.96	0.135
883.39	0.136
883.82	0.131
884.25	0.132
884.68	0.133
885.11	0.137
885.54	0.140
885.97	0.136
886.39	0.133
886.82	0.131
887.25	0.135
887.68	0.132
888.11	0.135
888.54	0.132
888.97	0.135
889.40	0.139
889.83	0.130
890.26	0.138
890.69	0.134
891.12	0.133
891.55	0.138
891.98	0.139
892.41	0.134
892.84	0.133
893.27	0.137
893.70	0.135
894.13	0.141
894.56	0.136
894.98	0.139
895.41	0.142
895.84	0.138
896.27	0.136
896.70	0.139
897.13	0.138
897.56	0.139
897.99	0.137
898.42	0.131
898.85	0.140
899.27	0.136
899.70	0.137
900.13	0.140
900.56	0.139
900.99	0.136
901.42	0.142
901.85	0.138
902.28	0.139
902.70	0.140
903.13	0.138
903.56	0.140
903.99	0.136
904.42	0.134
904.85	0.140
905.27	0.138
905.70	0.135
906.13	0.141
906.56	0.136
906.99	0.141
907.42	0.139
907.84	0.135
908.27	0.139
908.70	0.142
909.13	0.138
909.56	0.139
909.98	0.136
910.41	0.138
910.84	0.140
911.27	0.142
911.70	0.137
912.12	0.137
912.55	0.137
912.98	0.138
913.41	0.138
913.84	0.139
914.26	0.138
914.69	0.140
915.12	0.143
915.55	0.138
915.97	0.138
916.40	0.139
916.83	0.139
917.26	0.138
917.68	0.139
918.11	0.138
918.54	0.134
918.97	0.137
919.39	0.139
919.82	0.138
920.25	0.137
920.67	0.135
921.10	0.141
921.53	0.140
921.96	0.140
922.38	0.140
922.81	0.137
923.24	0.143
923.66	0.141
924.09	0.142
924.52	0.141
924.94	0.144
925.37	0.141
925.80	0.147
926.22	0.143
926.65	0.142
927.08	0.145
927.50	0.144
927.93	0.145
928.36	0.143
928.78	0.147
929.21	0.145
929.64	0.149
930.06	0.151
930.49	0.152
930.92	0.155
931.34	0.150
931.77	0.153
932.20	0.155
932.62	0.154
933.05	0.156
933.47	0.156
933.90	0.155
934.33	0.154
934.75	0.160
935.18	0.155
935.61	0.162
936.03	0.158
936.46	0.164
936.88	0.165
937.31	0.161
937.73	0.166
938.16	0.163
938.59	0.169
939.01	0.170
939.44	0.176
939.86	0.181
940.29	0.176
940.71	0.177
941.14	0.185
941.57	0.181
941.99	0.184
942.42	0.188
942.84	0.196
943.27	0.194
943.69	0.195
944.12	0.187
944.54	0.203
944.97	0.194
945.39	0.195
945.82	0.199
946.24	0.205
946.67	0.200
947.09	0.204
947.52	0.206
947.94	0.206
948.37	0.212
948.79	0.213
949.22	0.216
949.64	0.210
950.07	0.216
950.49	0.222
950.92	0.222
951.34	0.223
951.77	0.224
952.19	0.228
952.62	0.239
953.04	0.243
953.47	0.242
953.89	0.240
954.32	0.250
954.74	0.246
955.17	0.251
955.59	0.258
956.01	0.254
956.44	0.257
956.86	0.265
957.29	0.268
957.71	0.268
958.14	0.264
958.56	0.265
958.98	0.274
959.41	0.276
959.83	0.272
960.26	0.280
960.68	0.283
961.10	0.282
961.53	0.284
961.95	0.283
962.38	0.287
962.80	0.284
963.22	0.284
963.65	0.284
964.07	0.288
964.50	0.290
964.92	0.292
965.34	0.292
965.77	0.285
966.19	0.295
966.61	0.290
967.04	0.297
967.46	0.288
967.88	0.299
968.31	0.292
968.73	0.293
969.15	0.291
969.58	0.292
970.00	0.292
970.42	0.290
970.85	0.292
971.27	0.292
971.69	0.294
972.12	0.298
972.54	0.291
972.96	0.296
973.39	0.299
973.81	0.303
974.23	0.299
974.65	0.293
975.08	0.297
975.50	0.301
975.92	0.299
976.35	0.297
976.77	0.300
977.19	0.300
977.61	0.296
978.04	0.292
978.46	0.298
978.88	0.301
979.30	0.299
979.73	0.299
980.15	0.298
980.57	0.300
980.99	0.298
981.42	0.296
981.84	0.295
982.26	0.294
982.68	0.299
983.11	0.300
983.53	0.291
983.95	0.296
984.37	0.289
984.79	0.294
985.22	0.296
985.64	0.294
986.06	0.297
986.48	0.298
986.90	0.294
987.33	0.291
987.75	0.285
988.17	0.290
988.59	0.289
989.01	0.282
989.43	0.279
989.86	0.292
990.28	0.290
990.70	0.287
991.12	0.289
991.54	0.287
991.96	0.286
992.39	0.281
992.81	0.279
993.23	0.284
993.65	0.280
994.07	0.285
994.49	0.278
994.91	0.283
995.34	0.279
995.76	0.275
996.18	0.282
996.60	0.278
997.02	0.280
997.44	0.276
997.86	0.273
998.28	0.270
998.70	0.280
999.12	0.273
999.55	0.276
999.97	0.278
1000.39	0.272
1000.81	0.274
1001.23	0.268
1001.65	0.275
1002.07	0.275
1002.49	0.270
1002.91	0.264
1003.33	0.269
1003.75	0.267
1004.17	0.266
1004.59	0.259
1005.01	0.256
1005.43	0.256
1005.85	0.263
1006.28	0.252
1006.70	0.250
1007.12	0.262
1007.54	0.259
1007.96	0.257
1008.38	0.262
1008.80	0.258
1009.22	0.249
1009.64	0.249
1010.06	0.251
1010.48	0.256
1010.90	0.251
1011.32	0.257
1011.74	0.246
1012.16	0.246
1012.58	0.247
1013.00	0.245
1013.42	0.244
1013.84	0.242
1014.26	0.238
1014.67	0.239
1015.09	0.239
1015.51	0.235
1015.93	0.242
1016.35	0.237
1016.77	0.239
1017.19	0.235
1017.61	0.234
1018.03	0.233
1018.45	0.232
1018.87	0.243
1019.29	0.236
1019.71	0.235
1020.13	0.228
1020.55	0.231
1020.97	0.230
1021.38	0.223
1021.80	0.225
1022.22	0.229
1022.64	0.222
1023.06	0.218
1023.48	0.220
1023.90	0.227
1024.32	0.212
1024.74	0.227
1025.15	0.223
1025.57	0.228
1025.99	0.215
1026.41	0.219
1026.83	0.219
1027.25	0.214
1027.67	0.232
1028.08	0.222
1028.50	0.222
1028.92	0.231
1029.34	0.213
1029.76	0.220
1030.18	0.213
1030.60	0.214
1031.01	0.212
1031.43	0.221
1031.85	0.206
1032.27	0.213
1032.69	0.206
1033.10	0.217
1033.52	0.206
1033.94	0.203
1034.36	0.197
1034.78	0.204
1035.19	0.201
1035.61	0.199
1036.03	0.206
1036.45	0.195
1036.87	0.201
1037.28	0.211
1037.70	0.197
1038.12	0.200
1038.54	0.191
1038.95	0.189
1039.37	0.197
1039.79	0.203
1040.21	0.198
1040.62	0.215
1041.04	0.205
1041.46	0.204
1041.88	0.186
1042.29	0.196
1042.71	0.193
1043.13	0.208
1043.55	0.187
1043.96	0.203
1044.38	0.185
1044.80	0.191
1045.21	0.189
1045.63	0.175
1046.05	0.179
1046.47	0.193
1046.88	0.185
1047.30	0.218
1047.72	0.190
1048.13	0.195
1048.55	0.190
1048.97	0.183
1049.38	0.207
1049.80	0.209
1050.22	0.205
1050.63	0.178
1051.05	0.193
1051.47	0.193
1051.88	0.193
1052.30	0.211
1052.72	0.198
1053.13	0.210
1053.55	0.216
1053.97	0.190
1054.38	0.192
1054.80	0.199
1055.21	0.209
1055.63	0.194
1056.05	0.193
1056.46	0.214
1056.88	0.204
1057.29	0.191
1057.71	0.176
1058.13	0.220
1058.54	0.227
1058.96	0.199
1059.37	0.209
1059.79	0.212
1060.21	0.207
1060.62	0.216
1061.04	0.195
1061.45	0.220
1061.87	0.194
1062.28	0.225
1062.70	0.250
1063.12	0.188
1063.53	0.199
1063.95	0.206
1064.36	0.229
1064.78	0.283
1065.19	0.211
1065.61	0.248
1066.02	0.255
1066.44	0.234
1066.85	0.242
1067.27	0.276
1067.68	0.293
1068.10	0.219
1068.51	0.248
1068.93	0.350
1069.35	0.372
1069.76	0.244
1070.17	0.318
1070.59	0.258
1071.00	0.366
1071.42	0.352
1071.83	0.332
1072.25	0.456
1072.66	0.472
1073.08	0.404
1073.49	0.478
1073.91	0.468
1074.32	0.490
1074.74	0.400
1075.15	0.607
1075.57	0.349
1075.98	0.568
1076.40	0.340
1076.81	0.492
1077.22	0.414
1077.64	0.594
1078.05	1.068
1078.47	0.679
1078.88	0.698
1079.30	0.691
1079.71	-0.000
1080.12	-0.000
1080.54	-0.000
1080.95	1.455
1081.37	1.656
1081.78	0.537
1082.19	1.207
1082.61	0.911
1083.02	-0.000
1083.44	0.697
1083.85	-0.000
1084.26	-0.000
1084.68	-0.000
1085.09	1.096
1085.50	-0.000
1085.92	-0.000
1086.33	-0.000
1086.74	-0.000
1087.16	-0.000
1087.57	-0.000
1087.98	0.687
1088.40	-0.000
1088.81	-0.000
1089.22	-0.000
1089.64	-0.000
1090.05	-0.000
1090.46	-0.000
1090.88	-0.000
1091.29	-0.000
1091.70	-0.000
1092.12	-0.000
1092.53	-0.000
1092.94	-0.000
1093.36	-0.000
1093.77	-0.000
1094.18	-0.000
1094.59	-0.000
1095.01	-0.000
1095.42	-0.000
1095.83	-0.000
1096.25	-0.000
1096.66	-0.000
1097.07	-0.000
1097.48	-0.000
1097.90	-0.000
1098.31	-0.000
1098.72	-0.000
1099.13	-0.000
>>>>>End Processed Spectral Data<<<<<
