SpectraSuite Data File
++++++++++++++++++++++++++++++++++++
Date: Sun Apr 24 14:03:17 CEST 2016
User: spectrasuite
Dark Spectrum Present: Yes
Reference Spectrum Present: Yes
Number of Sampled Component Spectra: 1
Spectrometers: HR+C0708
Integration Time (usec): 1000 (HR+C0708)
Spectra Averaged: 10 (HR+C0708)
Boxcar Smoothing: 0 (HR+C0708)
Correct for Electrical Dark: No (HR+C0708)
Strobe/Lamp Enabled: No (HR+C0708)
Correct for Detector Non-linearity: No (HR+C0708)
Correct for Stray Light: No (HR+C0708)
Number of Pixels in Processed Spectrum: 2048
>>>>>Begin Processed Spectral Data<<<<<
188.76	-0.000
189.23	0.734
189.70	-0.000
190.17	-0.000
190.64	-0.000
191.12	-0.000
191.59	-0.000
192.06	-0.000
192.53	-0.000
193.01	-0.000
193.48	-0.000
193.95	-0.000
194.42	-0.000
194.90	-0.000
195.37	-0.000
195.84	-0.000
196.31	-0.000
196.78	-0.000
197.26	-0.000
197.73	-0.000
198.20	-0.000
198.67	-0.000
199.14	-0.000
199.62	-0.000
200.09	-0.000
200.56	-0.000
201.03	1.075
201.50	0.993
201.97	1.758
202.45	-0.000
202.92	0.713
203.39	0.834
203.86	0.838
204.33	0.788
204.80	0.932
205.28	1.175
205.75	-0.000
206.22	0.872
206.69	0.865
207.16	0.907
207.63	0.686
208.11	0.707
208.58	-0.000
209.05	1.014
209.52	0.793
209.99	1.260
210.46	1.080
210.93	-0.000
211.41	0.679
211.88	0.923
212.35	1.680
212.82	-0.000
213.29	0.719
213.76	0.987
214.23	1.192
214.70	1.213
215.18	1.248
215.65	0.874
216.12	0.956
216.59	0.813
217.06	1.064
217.53	1.508
218.00	0.735
218.47	0.800
218.94	1.466
219.41	-0.000
219.89	1.220
220.36	1.457
220.83	-0.000
221.30	1.040
221.77	0.806
222.24	0.963
222.71	-0.000
223.18	-0.000
223.65	1.439
224.12	1.818
224.59	-0.000
225.06	1.193
225.54	1.337
226.01	1.453
226.48	1.147
226.95	1.745
227.42	1.909
227.89	-0.000
228.36	1.532
228.83	1.806
229.30	1.700
229.77	2.267
230.24	1.382
230.71	2.412
231.18	1.900
231.65	1.624
232.12	1.578
232.59	1.986
233.06	2.911
233.53	1.704
234.00	1.870
234.47	2.211
234.94	-0.000
235.41	1.942
235.88	2.556
236.35	2.582
236.82	2.203
237.29	2.153
237.76	2.321
238.23	2.972
238.70	2.202
239.17	2.135
239.64	2.745
240.11	3.417
240.58	2.528
241.05	2.558
241.52	2.792
241.99	2.600
242.46	2.992
242.93	3.185
243.40	2.819
243.87	2.304
244.34	2.367
244.81	2.836
245.28	-0.000
245.75	2.540
246.22	2.889
246.69	3.014
247.16	2.737
247.63	2.848
248.10	2.915
248.57	3.237
249.04	3.137
249.51	3.062
249.98	-0.000
250.45	2.750
250.92	2.547
251.39	3.035
251.85	-0.000
252.32	2.828
252.79	3.064
253.26	2.820
253.73	4.026
254.20	2.463
254.67	2.589
255.14	2.929
255.61	3.027
256.08	2.857
256.55	2.933
257.02	2.845
257.49	2.889
257.95	2.895
258.42	2.907
258.89	2.841
259.36	2.724
259.83	3.311
260.30	-0.000
260.77	3.212
261.24	2.859
261.71	4.355
262.17	3.961
262.64	2.797
263.11	3.018
263.58	-0.000
264.05	3.149
264.52	3.010
264.99	2.865
265.46	3.013
265.92	3.069
266.39	3.209
266.86	4.386
267.33	-0.000
267.80	2.569
268.27	3.208
268.74	3.403
269.20	2.975
269.67	2.889
270.14	2.735
270.61	2.920
271.08	3.078
271.55	2.706
272.01	2.986
272.48	2.801
272.95	2.790
273.42	2.908
273.89	2.958
274.36	2.663
274.82	2.776
275.29	2.773
275.76	3.009
276.23	2.773
276.70	2.664
277.16	2.772
277.63	2.685
278.10	2.670
278.57	2.687
279.04	2.752
279.50	2.608
279.97	2.749
280.44	2.578
280.91	2.520
281.38	2.472
281.84	2.735
282.31	2.845
282.78	2.864
283.25	2.650
283.72	2.537
284.18	2.758
284.65	2.669
285.12	2.597
285.59	2.594
286.05	2.672
286.52	2.626
286.99	2.521
287.46	2.589
287.92	2.632
288.39	2.486
288.86	2.625
289.33	2.559
289.79	2.468
290.26	2.609
290.73	2.508
291.20	2.481
291.66	2.553
292.13	2.501
292.60	2.445
293.07	2.340
293.53	2.283
294.00	2.481
294.47	2.610
294.93	2.310
295.40	2.541
295.87	2.506
296.34	2.449
296.80	2.310
297.27	2.410
297.74	2.310
298.20	2.384
298.67	2.312
299.14	2.445
299.60	2.343
300.07	2.317
300.54	2.312
301.01	2.294
301.47	2.225
301.94	2.271
302.41	2.259
302.87	2.294
303.34	2.355
303.81	2.251
304.27	2.235
304.74	2.229
305.21	2.172
305.67	2.279
306.14	2.204
306.61	2.256
307.07	2.241
307.54	2.204
308.01	2.200
308.47	2.164
308.94	2.242
309.40	2.226
309.87	2.199
310.34	2.181
310.80	2.209
311.27	2.203
311.74	2.130
312.20	2.209
312.67	2.151
313.13	2.083
313.60	2.158
314.07	2.173
314.53	2.146
315.00	2.126
315.47	2.186
315.93	2.168
316.40	2.163
316.86	2.126
317.33	2.090
317.80	2.095
318.26	2.088
318.73	2.154
319.19	2.120
319.66	2.078
320.13	2.064
320.59	2.050
321.06	2.064
321.52	2.117
321.99	2.072
322.45	2.021
322.92	2.041
323.39	2.061
323.85	2.007
324.32	2.036
324.78	2.041
325.25	2.028
325.71	1.980
326.18	1.968
326.64	2.019
327.11	1.945
327.58	1.941
328.04	1.933
328.51	1.928
328.97	1.946
329.44	1.900
329.90	1.852
330.37	1.851
330.83	1.836
331.30	1.881
331.76	1.834
332.23	1.790
332.69	1.797
333.16	1.750
333.62	1.744
334.09	1.703
334.56	1.661
335.02	1.665
335.49	1.622
335.95	1.595
336.42	1.550
336.88	1.526
337.35	1.480
337.81	1.468
338.28	1.429
338.74	1.397
339.20	1.368
339.67	1.338
340.13	1.308
340.60	1.263
341.06	1.229
341.53	1.197
341.99	1.163
342.46	1.128
342.92	1.103
343.39	1.070
343.85	1.039
344.32	1.017
344.78	0.988
345.25	0.967
345.71	0.947
346.17	0.915
346.64	0.886
347.10	0.861
347.57	0.825
348.03	0.806
348.50	0.778
348.96	0.756
349.43	0.740
349.89	0.721
350.35	0.697
350.82	0.686
351.28	0.671
351.75	0.657
352.21	0.640
352.67	0.616
353.14	0.614
353.60	0.593
354.07	0.586
354.53	0.570
355.00	0.562
355.46	0.544
355.92	0.540
356.39	0.527
356.85	0.526
357.31	0.511
357.78	0.503
358.24	0.498
358.71	0.491
359.17	0.482
359.63	0.481
360.10	0.475
360.56	0.470
361.03	0.467
361.49	0.460
361.95	0.457
362.42	0.452
362.88	0.448
363.34	0.446
363.81	0.443
364.27	0.436
364.73	0.438
365.20	0.434
365.66	0.429
366.12	0.427
366.59	0.426
367.05	0.426
367.51	0.425
367.98	0.419
368.44	0.420
368.90	0.417
369.37	0.414
369.83	0.410
370.29	0.409
370.76	0.409
371.22	0.409
371.68	0.405
372.15	0.400
372.61	0.401
373.07	0.402
373.54	0.398
374.00	0.398
374.46	0.395
374.92	0.395
375.39	0.393
375.85	0.393
376.31	0.391
376.78	0.390
377.24	0.388
377.70	0.387
378.16	0.384
378.63	0.386
379.09	0.383
379.55	0.381
380.01	0.383
380.48	0.377
380.94	0.379
381.40	0.374
381.87	0.372
382.33	0.372
382.79	0.370
383.25	0.372
383.72	0.372
384.18	0.368
384.64	0.368
385.10	0.370
385.56	0.368
386.03	0.362
386.49	0.362
386.95	0.360
387.41	0.358
387.88	0.358
388.34	0.356
388.80	0.358
389.26	0.355
389.72	0.357
390.19	0.354
390.65	0.352
391.11	0.349
391.57	0.350
392.04	0.351
392.50	0.347
392.96	0.343
393.42	0.345
393.88	0.345
394.34	0.344
394.81	0.341
395.27	0.342
395.73	0.341
396.19	0.339
396.65	0.336
397.12	0.338
397.58	0.333
398.04	0.335
398.50	0.333
398.96	0.332
399.42	0.335
399.89	0.331
400.35	0.332
400.81	0.331
401.27	0.328
401.73	0.328
402.19	0.329
402.65	0.326
403.12	0.323
403.58	0.323
404.04	0.321
404.50	0.323
404.96	0.322
405.42	0.322
405.88	0.320
406.34	0.321
406.81	0.320
407.27	0.319
407.73	0.316
408.19	0.313
408.65	0.314
409.11	0.311
409.57	0.316
410.03	0.312
410.49	0.312
410.96	0.314
411.42	0.309
411.88	0.310
412.34	0.307
412.80	0.306
413.26	0.306
413.72	0.306
414.18	0.304
414.64	0.305
415.10	0.305
415.56	0.303
416.02	0.304
416.48	0.300
416.95	0.298
417.41	0.299
417.87	0.295
418.33	0.297
418.79	0.296
419.25	0.295
419.71	0.294
420.17	0.296
420.63	0.294
421.09	0.291
421.55	0.289
422.01	0.292
422.47	0.292
422.93	0.292
423.39	0.288
423.85	0.290
424.31	0.288
424.77	0.286
425.23	0.288
425.69	0.287
426.15	0.285
426.61	0.285
427.07	0.281
427.53	0.280
427.99	0.281
428.45	0.283
428.91	0.281
429.37	0.279
429.83	0.279
430.29	0.277
430.75	0.280
431.21	0.280
431.67	0.279
432.13	0.279
432.59	0.274
433.05	0.276
433.51	0.277
433.97	0.274
434.43	0.273
434.89	0.275
435.35	0.271
435.81	0.271
436.27	0.269
436.73	0.272
437.19	0.272
437.65	0.269
438.11	0.267
438.57	0.270
439.03	0.270
439.48	0.267
439.94	0.265
440.40	0.266
440.86	0.266
441.32	0.267
441.78	0.265
442.24	0.265
442.70	0.262
443.16	0.260
443.62	0.259
444.08	0.263
444.54	0.261
444.99	0.259
445.45	0.256
445.91	0.257
446.37	0.258
446.83	0.258
447.29	0.254
447.75	0.254
448.21	0.256
448.67	0.254
449.12	0.252
449.58	0.254
450.04	0.250
450.50	0.252
450.96	0.254
451.42	0.251
451.88	0.252
452.34	0.255
452.79	0.249
453.25	0.250
453.71	0.248
454.17	0.247
454.63	0.251
455.09	0.248
455.55	0.250
456.00	0.244
456.46	0.247
456.92	0.244
457.38	0.245
457.84	0.243
458.30	0.240
458.75	0.244
459.21	0.238
459.67	0.241
460.13	0.241
460.59	0.239
461.04	0.239
461.50	0.239
461.96	0.238
462.42	0.239
462.88	0.237
463.33	0.238
463.79	0.236
464.25	0.237
464.71	0.235
465.17	0.237
465.62	0.235
466.08	0.234
466.54	0.233
467.00	0.234
467.46	0.233
467.91	0.233
468.37	0.232
468.83	0.233
469.29	0.231
469.74	0.232
470.20	0.230
470.66	0.229
471.12	0.227
471.57	0.227
472.03	0.227
472.49	0.229
472.95	0.230
473.40	0.226
473.86	0.226
474.32	0.225
474.78	0.226
475.23	0.226
475.69	0.226
476.15	0.224
476.60	0.226
477.06	0.225
477.52	0.223
477.98	0.221
478.43	0.220
478.89	0.221
479.35	0.220
479.80	0.222
480.26	0.222
480.72	0.218
481.18	0.221
481.63	0.220
482.09	0.221
482.55	0.219
483.00	0.218
483.46	0.220
483.92	0.217
484.37	0.219
484.83	0.215
485.29	0.216
485.74	0.215
486.20	0.216
486.66	0.214
487.11	0.216
487.57	0.212
488.03	0.213
488.48	0.212
488.94	0.210
489.40	0.211
489.85	0.212
490.31	0.213
490.77	0.211
491.22	0.211
491.68	0.210
492.13	0.208
492.59	0.208
493.05	0.210
493.50	0.209
493.96	0.207
494.42	0.205
494.87	0.203
495.33	0.205
495.78	0.207
496.24	0.207
496.70	0.206
497.15	0.206
497.61	0.204
498.06	0.205
498.52	0.202
498.98	0.202
499.43	0.204
499.89	0.202
500.34	0.203
500.80	0.201
501.25	0.203
501.71	0.200
502.17	0.200
502.62	0.201
503.08	0.199
503.53	0.198
503.99	0.198
504.44	0.198
504.90	0.199
505.36	0.196
505.81	0.196
506.27	0.195
506.72	0.196
507.18	0.198
507.63	0.194
508.09	0.197
508.54	0.194
509.00	0.193
509.45	0.193
509.91	0.194
510.36	0.193
510.82	0.195
511.27	0.192
511.73	0.195
512.19	0.194
512.64	0.191
513.10	0.192
513.55	0.194
514.01	0.190
514.46	0.191
514.92	0.190
515.37	0.192
515.83	0.192
516.28	0.189
516.73	0.187
517.19	0.188
517.64	0.188
518.10	0.190
518.55	0.187
519.01	0.188
519.46	0.188
519.92	0.191
520.37	0.184
520.83	0.184
521.28	0.187
521.74	0.187
522.19	0.185
522.65	0.185
523.10	0.186
523.55	0.185
524.01	0.185
524.46	0.184
524.92	0.182
525.37	0.183
525.83	0.183
526.28	0.182
526.73	0.181
527.19	0.184
527.64	0.182
528.10	0.181
528.55	0.180
529.01	0.180
529.46	0.180
529.91	0.179
530.37	0.179
530.82	0.181
531.28	0.178
531.73	0.178
532.18	0.178
532.64	0.179
533.09	0.177
533.54	0.177
534.00	0.177
534.45	0.179
534.91	0.178
535.36	0.178
535.81	0.175
536.27	0.174
536.72	0.177
537.17	0.173
537.63	0.175
538.08	0.172
538.54	0.174
538.99	0.173
539.44	0.175
539.90	0.174
540.35	0.174
540.80	0.173
541.26	0.172
541.71	0.169
542.16	0.172
542.62	0.170
543.07	0.172
543.52	0.171
543.98	0.171
544.43	0.169
544.88	0.169
545.34	0.168
545.79	0.169
546.24	0.168
546.69	0.169
547.15	0.166
547.60	0.165
548.05	0.170
548.51	0.165
548.96	0.166
549.41	0.167
549.86	0.166
550.32	0.167
550.77	0.168
551.22	0.166
551.68	0.163
552.13	0.164
552.58	0.162
553.03	0.164
553.49	0.167
553.94	0.162
554.39	0.164
554.84	0.164
555.30	0.164
555.75	0.163
556.20	0.165
556.65	0.159
557.11	0.164
557.56	0.160
558.01	0.162
558.46	0.164
558.92	0.161
559.37	0.161
559.82	0.161
560.27	0.160
560.72	0.160
561.18	0.159
561.63	0.160
562.08	0.157
562.53	0.158
562.99	0.160
563.44	0.157
563.89	0.157
564.34	0.157
564.79	0.159
565.25	0.156
565.70	0.156
566.15	0.155
566.60	0.155
567.05	0.156
567.50	0.156
567.96	0.156
568.41	0.155
568.86	0.154
569.31	0.154
569.76	0.154
570.21	0.153
570.67	0.154
571.12	0.154
571.57	0.153
572.02	0.150
572.47	0.152
572.92	0.153
573.37	0.152
573.83	0.150
574.28	0.153
574.73	0.151
575.18	0.150
575.63	0.152
576.08	0.150
576.53	0.149
576.98	0.150
577.44	0.148
577.89	0.150
578.34	0.148
578.79	0.148
579.24	0.149
579.69	0.147
580.14	0.147
580.59	0.147
581.04	0.145
581.49	0.146
581.95	0.146
582.40	0.147
582.85	0.146
583.30	0.145
583.75	0.143
584.20	0.146
584.65	0.145
585.10	0.144
585.55	0.145
586.00	0.145
586.45	0.144
586.90	0.146
587.35	0.145
587.80	0.142
588.25	0.144
588.71	0.144
589.16	0.142
589.61	0.142
590.06	0.141
590.51	0.143
590.96	0.143
591.41	0.141
591.86	0.144
592.31	0.143
592.76	0.142
593.21	0.142
593.66	0.143
594.11	0.141
594.56	0.142
595.01	0.141
595.46	0.141
595.91	0.141
596.36	0.138
596.81	0.141
597.26	0.141
597.71	0.139
598.16	0.138
598.61	0.138
599.06	0.141
599.51	0.143
599.96	0.140
600.41	0.139
600.86	0.139
601.31	0.139
601.76	0.140
602.21	0.140
602.65	0.138
603.10	0.138
603.55	0.138
604.00	0.135
604.45	0.137
604.90	0.138
605.35	0.135
605.80	0.137
606.25	0.139
606.70	0.136
607.15	0.136
607.60	0.136
608.05	0.133
608.50	0.136
608.95	0.132
609.39	0.136
609.84	0.136
610.29	0.135
610.74	0.136
611.19	0.133
611.64	0.133
612.09	0.134
612.54	0.133
612.99	0.135
613.44	0.134
613.88	0.134
614.33	0.134
614.78	0.131
615.23	0.132
615.68	0.131
616.13	0.133
616.58	0.131
617.03	0.131
617.47	0.132
617.92	0.131
618.37	0.130
618.82	0.131
619.27	0.131
619.72	0.129
620.17	0.129
620.61	0.129
621.06	0.129
621.51	0.128
621.96	0.130
622.41	0.130
622.86	0.129
623.30	0.128
623.75	0.129
624.20	0.129
624.65	0.126
625.10	0.128
625.54	0.127
625.99	0.128
626.44	0.127
626.89	0.127
627.34	0.129
627.78	0.127
628.23	0.127
628.68	0.126
629.13	0.126
629.58	0.126
630.02	0.128
630.47	0.125
630.92	0.126
631.37	0.125
631.81	0.126
632.26	0.127
632.71	0.126
633.16	0.127
633.61	0.126
634.05	0.123
634.50	0.125
634.95	0.123
635.40	0.125
635.84	0.124
636.29	0.125
636.74	0.125
637.18	0.124
637.63	0.126
638.08	0.124
638.53	0.122
638.97	0.124
639.42	0.124
639.87	0.124
640.32	0.122
640.76	0.124
641.21	0.122
641.66	0.123
642.10	0.122
642.55	0.122
643.00	0.121
643.44	0.123
643.89	0.122
644.34	0.122
644.79	0.121
645.23	0.123
645.68	0.122
646.13	0.121
646.57	0.122
647.02	0.119
647.47	0.123
647.91	0.120
648.36	0.120
648.81	0.120
649.25	0.119
649.70	0.117
650.15	0.119
650.59	0.119
651.04	0.119
651.48	0.121
651.93	0.121
652.38	0.117
652.82	0.119
653.27	0.118
653.72	0.120
654.16	0.118
654.61	0.119
655.06	0.117
655.50	0.115
655.95	0.116
656.39	0.113
656.84	0.114
657.29	0.119
657.73	0.117
658.18	0.118
658.62	0.117
659.07	0.117
659.52	0.117
659.96	0.117
660.41	0.118
660.85	0.116
661.30	0.116
661.74	0.117
662.19	0.115
662.64	0.116
663.08	0.115
663.53	0.114
663.97	0.115
664.42	0.114
664.86	0.118
665.31	0.116
665.75	0.113
666.20	0.116
666.65	0.116
667.09	0.114
667.54	0.116
667.98	0.115
668.43	0.116
668.87	0.113
669.32	0.114
669.76	0.112
670.21	0.115
670.65	0.110
671.10	0.113
671.54	0.114
671.99	0.112
672.43	0.112
672.88	0.113
673.32	0.113
673.77	0.111
674.21	0.112
674.66	0.111
675.10	0.111
675.55	0.109
675.99	0.112
676.44	0.110
676.88	0.113
677.33	0.111
677.77	0.112
678.22	0.111
678.66	0.110
679.11	0.110
679.55	0.112
679.99	0.111
680.44	0.111
680.88	0.110
681.33	0.109
681.77	0.110
682.22	0.111
682.66	0.110
683.11	0.109
683.55	0.109
683.99	0.107
684.44	0.108
684.88	0.108
685.33	0.108
685.77	0.108
686.21	0.108
686.66	0.109
687.10	0.109
687.55	0.108
687.99	0.108
688.44	0.107
688.88	0.109
689.32	0.108
689.77	0.107
690.21	0.107
690.65	0.107
691.10	0.110
691.54	0.107
691.99	0.108
692.43	0.107
692.87	0.108
693.32	0.108
693.76	0.109
694.20	0.108
694.65	0.106
695.09	0.108
695.53	0.106
695.98	0.107
696.42	0.108
696.86	0.106
697.31	0.105
697.75	0.106
698.19	0.105
698.64	0.109
699.08	0.107
699.52	0.106
699.97	0.105
700.41	0.107
700.85	0.105
701.30	0.103
701.74	0.104
702.18	0.107
702.63	0.104
703.07	0.105
703.51	0.106
703.96	0.106
704.40	0.103
704.84	0.105
705.28	0.104
705.73	0.105
706.17	0.105
706.61	0.104
707.06	0.103
707.50	0.103
707.94	0.104
708.38	0.102
708.83	0.105
709.27	0.104
709.71	0.104
710.15	0.105
710.60	0.103
711.04	0.103
711.48	0.107
711.92	0.105
712.37	0.104
712.81	0.105
713.25	0.103
713.69	0.104
714.13	0.107
714.58	0.102
715.02	0.103
715.46	0.102
715.90	0.100
716.35	0.103
716.79	0.104
717.23	0.104
717.67	0.104
718.11	0.105
718.56	0.104
719.00	0.103
719.44	0.104
719.88	0.105
720.32	0.103
720.76	0.106
721.21	0.103
721.65	0.102
722.09	0.102
722.53	0.102
722.97	0.104
723.41	0.103
723.86	0.105
724.30	0.104
724.74	0.107
725.18	0.102
725.62	0.105
726.06	0.105
726.50	0.103
726.95	0.104
727.39	0.104
727.83	0.102
728.27	0.105
728.71	0.105
729.15	0.106
729.59	0.106
730.03	0.104
730.48	0.104
730.92	0.103
731.36	0.104
731.80	0.104
732.24	0.104
732.68	0.102
733.12	0.103
733.56	0.104
734.00	0.105
734.44	0.107
734.89	0.105
735.33	0.106
735.77	0.108
736.21	0.105
736.65	0.103
737.09	0.105
737.53	0.106
737.97	0.106
738.41	0.106
738.85	0.108
739.29	0.107
739.73	0.106
740.17	0.106
740.61	0.106
741.05	0.105
741.49	0.107
741.93	0.106
742.37	0.104
742.81	0.105
743.26	0.107
743.70	0.104
744.14	0.108
744.58	0.105
745.02	0.105
745.46	0.105
745.90	0.104
746.34	0.106
746.78	0.105
747.22	0.106
747.66	0.107
748.10	0.104
748.54	0.105
748.98	0.104
749.42	0.106
749.86	0.104
750.29	0.105
750.73	0.101
751.17	0.103
751.61	0.103
752.05	0.106
752.49	0.103
752.93	0.103
753.37	0.103
753.81	0.101
754.25	0.103
754.69	0.100
755.13	0.104
755.57	0.106
756.01	0.104
756.45	0.106
756.89	0.105
757.33	0.104
757.77	0.101
758.21	0.102
758.64	0.100
759.08	0.098
759.52	0.102
759.96	0.105
760.40	0.102
760.84	0.099
761.28	0.101
761.72	0.101
762.16	0.101
762.60	0.100
763.03	0.098
763.47	0.100
763.91	0.102
764.35	0.100
764.79	0.099
765.23	0.098
765.67	0.101
766.11	0.098
766.54	0.096
766.98	0.101
767.42	0.102
767.86	0.097
768.30	0.099
768.74	0.101
769.17	0.102
769.61	0.102
770.05	0.102
770.49	0.101
770.93	0.103
771.37	0.098
771.80	0.098
772.24	0.098
772.68	0.098
773.12	0.098
773.56	0.098
774.00	0.097
774.43	0.094
774.87	0.098
775.31	0.096
775.75	0.099
776.19	0.097
776.62	0.097
777.06	0.100
777.50	0.098
777.94	0.097
778.37	0.096
778.81	0.098
779.25	0.097
779.69	0.098
780.13	0.098
780.56	0.099
781.00	0.098
781.44	0.099
781.88	0.095
782.31	0.097
782.75	0.095
783.19	0.097
783.63	0.095
784.06	0.094
784.50	0.101
784.94	0.096
785.37	0.098
785.81	0.098
786.25	0.095
786.69	0.097
787.12	0.098
787.56	0.094
788.00	0.101
788.43	0.098
788.87	0.095
789.31	0.094
789.75	0.098
790.18	0.095
790.62	0.095
791.06	0.095
791.49	0.095
791.93	0.095
792.37	0.096
792.80	0.094
793.24	0.093
793.68	0.093
794.11	0.094
794.55	0.097
794.99	0.096
795.42	0.096
795.86	0.098
796.30	0.093
796.73	0.096
797.17	0.095
797.61	0.096
798.04	0.093
798.48	0.095
798.91	0.092
799.35	0.093
799.79	0.096
800.22	0.096
800.66	0.091
801.10	0.094
801.53	0.094
801.97	0.099
802.40	0.096
802.84	0.095
803.28	0.094
803.71	0.097
804.15	0.095
804.58	0.091
805.02	0.092
805.46	0.093
805.89	0.093
806.33	0.095
806.76	0.091
807.20	0.095
807.63	0.094
808.07	0.094
808.51	0.093
808.94	0.092
809.38	0.092
809.81	0.092
810.25	0.096
810.68	0.097
811.12	0.096
811.55	0.094
811.99	0.095
812.42	0.094
812.86	0.093
813.29	0.093
813.73	0.095
814.17	0.094
814.60	0.091
815.04	0.096
815.47	0.094
815.91	0.092
816.34	0.094
816.78	0.092
817.21	0.096
817.65	0.094
818.08	0.094
818.52	0.098
818.95	0.096
819.39	0.094
819.82	0.093
820.25	0.095
820.69	0.093
821.12	0.096
821.56	0.096
821.99	0.091
822.43	0.091
822.86	0.095
823.30	0.096
823.73	0.090
824.17	0.092
824.60	0.092
825.04	0.096
825.47	0.091
825.90	0.096
826.34	0.098
826.77	0.094
827.21	0.097
827.64	0.092
828.08	0.097
828.51	0.090
828.94	0.096
829.38	0.094
829.81	0.095
830.25	0.097
830.68	0.097
831.11	0.096
831.55	0.096
831.98	0.095
832.42	0.098
832.85	0.099
833.28	0.097
833.72	0.101
834.15	0.099
834.58	0.100
835.02	0.095
835.45	0.097
835.88	0.095
836.32	0.101
836.75	0.098
837.19	0.097
837.62	0.097
838.05	0.096
838.49	0.098
838.92	0.098
839.35	0.102
839.79	0.101
840.22	0.095
840.65	0.098
841.09	0.101
841.52	0.099
841.95	0.098
842.39	0.102
842.82	0.097
843.25	0.100
843.68	0.100
844.12	0.103
844.55	0.098
844.98	0.096
845.42	0.099
845.85	0.096
846.28	0.100
846.71	0.098
847.15	0.099
847.58	0.099
848.01	0.104
848.45	0.103
848.88	0.100
849.31	0.100
849.74	0.095
850.18	0.100
850.61	0.101
851.04	0.100
851.47	0.101
851.91	0.098
852.34	0.102
852.77	0.103
853.20	0.102
853.64	0.097
854.07	0.101
854.50	0.100
854.93	0.102
855.36	0.102
855.80	0.099
856.23	0.099
856.66	0.104
857.09	0.101
857.52	0.102
857.96	0.094
858.39	0.097
858.82	0.096
859.25	0.106
859.68	0.097
860.12	0.100
860.55	0.100
860.98	0.105
861.41	0.103
861.84	0.099
862.27	0.098
862.71	0.101
863.14	0.098
863.57	0.101
864.00	0.099
864.43	0.102
864.86	0.100
865.30	0.101
865.73	0.102
866.16	0.099
866.59	0.101
867.02	0.099
867.45	0.100
867.88	0.099
868.31	0.103
868.75	0.105
869.18	0.102
869.61	0.102
870.04	0.101
870.47	0.108
870.90	0.101
871.33	0.101
871.76	0.105
872.19	0.105
872.62	0.097
873.06	0.097
873.49	0.102
873.92	0.099
874.35	0.105
874.78	0.106
875.21	0.099
875.64	0.099
876.07	0.105
876.50	0.108
876.93	0.112
877.36	0.103
877.79	0.110
878.22	0.100
878.65	0.104
879.08	0.106
879.51	0.106
879.94	0.105
880.37	0.106
880.80	0.114
881.23	0.101
881.67	0.113
882.10	0.105
882.53	0.103
882.96	0.108
883.39	0.106
883.82	0.101
884.25	0.109
884.68	0.106
885.11	0.109
885.54	0.106
885.97	0.105
886.39	0.101
886.82	0.106
887.25	0.109
887.68	0.108
888.11	0.101
888.54	0.104
888.97	0.103
889.40	0.108
889.83	0.105
890.26	0.106
890.69	0.105
891.12	0.104
891.55	0.107
891.98	0.108
892.41	0.103
892.84	0.104
893.27	0.104
893.70	0.107
894.13	0.105
894.56	0.109
894.98	0.115
895.41	0.111
895.84	0.110
896.27	0.107
896.70	0.111
897.13	0.112
897.56	0.110
897.99	0.107
898.42	0.104
898.85	0.110
899.27	0.110
899.70	0.111
900.13	0.110
900.56	0.109
900.99	0.112
901.42	0.115
901.85	0.115
902.28	0.108
902.70	0.112
903.13	0.110
903.56	0.114
903.99	0.109
904.42	0.110
904.85	0.111
905.27	0.106
905.70	0.110
906.13	0.113
906.56	0.109
906.99	0.112
907.42	0.111
907.84	0.108
908.27	0.107
908.70	0.115
909.13	0.114
909.56	0.108
909.98	0.112
910.41	0.110
910.84	0.113
911.27	0.114
911.70	0.109
912.12	0.110
912.55	0.111
912.98	0.108
913.41	0.110
913.84	0.115
914.26	0.107
914.69	0.109
915.12	0.112
915.55	0.107
915.97	0.111
916.40	0.110
916.83	0.114
917.26	0.114
917.68	0.115
918.11	0.113
918.54	0.115
918.97	0.111
919.39	0.111
919.82	0.109
920.25	0.111
920.67	0.110
921.10	0.115
921.53	0.113
921.96	0.114
922.38	0.115
922.81	0.114
923.24	0.117
923.66	0.112
924.09	0.114
924.52	0.117
924.94	0.117
925.37	0.114
925.80	0.119
926.22	0.119
926.65	0.115
927.08	0.118
927.50	0.118
927.93	0.121
928.36	0.117
928.78	0.119
929.21	0.118
929.64	0.123
930.06	0.129
930.49	0.126
930.92	0.128
931.34	0.125
931.77	0.126
932.20	0.128
932.62	0.124
933.05	0.129
933.47	0.134
933.90	0.129
934.33	0.125
934.75	0.128
935.18	0.136
935.61	0.139
936.03	0.135
936.46	0.139
936.88	0.137
937.31	0.141
937.73	0.138
938.16	0.137
938.59	0.141
939.01	0.144
939.44	0.149
939.86	0.148
940.29	0.151
940.71	0.150
941.14	0.153
941.57	0.155
941.99	0.157
942.42	0.154
942.84	0.160
943.27	0.166
943.69	0.158
944.12	0.158
944.54	0.167
944.97	0.165
945.39	0.170
945.82	0.169
946.24	0.181
946.67	0.174
947.09	0.169
947.52	0.178
947.94	0.186
948.37	0.184
948.79	0.183
949.22	0.185
949.64	0.188
950.07	0.191
950.49	0.195
950.92	0.198
951.34	0.202
951.77	0.197
952.19	0.203
952.62	0.209
953.04	0.205
953.47	0.215
953.89	0.218
954.32	0.224
954.74	0.220
955.17	0.218
955.59	0.228
956.01	0.227
956.44	0.231
956.86	0.237
957.29	0.239
957.71	0.244
958.14	0.236
958.56	0.238
958.98	0.247
959.41	0.245
959.83	0.248
960.26	0.247
960.68	0.258
961.10	0.248
961.53	0.255
961.95	0.257
962.38	0.256
962.80	0.256
963.22	0.253
963.65	0.260
964.07	0.258
964.50	0.260
964.92	0.267
965.34	0.260
965.77	0.260
966.19	0.267
966.61	0.268
967.04	0.263
967.46	0.260
967.88	0.272
968.31	0.262
968.73	0.265
969.15	0.267
969.58	0.268
970.00	0.269
970.42	0.264
970.85	0.268
971.27	0.267
971.69	0.266
972.12	0.275
972.54	0.272
972.96	0.267
973.39	0.274
973.81	0.273
974.23	0.268
974.65	0.266
975.08	0.267
975.50	0.273
975.92	0.275
976.35	0.268
976.77	0.271
977.19	0.270
977.61	0.268
978.04	0.267
978.46	0.274
978.88	0.275
979.30	0.276
979.73	0.269
980.15	0.276
980.57	0.281
980.99	0.274
981.42	0.270
981.84	0.279
982.26	0.269
982.68	0.270
983.11	0.277
983.53	0.268
983.95	0.270
984.37	0.272
984.79	0.271
985.22	0.274
985.64	0.268
986.06	0.270
986.48	0.275
986.90	0.261
987.33	0.269
987.75	0.268
988.17	0.262
988.59	0.260
989.01	0.260
989.43	0.258
989.86	0.264
990.28	0.268
990.70	0.262
991.12	0.273
991.54	0.262
991.96	0.262
992.39	0.269
992.81	0.256
993.23	0.255
993.65	0.254
994.07	0.260
994.49	0.252
994.91	0.257
995.34	0.248
995.76	0.254
996.18	0.248
996.60	0.250
997.02	0.255
997.44	0.252
997.86	0.252
998.28	0.247
998.70	0.255
999.12	0.249
999.55	0.244
999.97	0.250
1000.39	0.248
1000.81	0.248
1001.23	0.240
1001.65	0.247
1002.07	0.252
1002.49	0.242
1002.91	0.237
1003.33	0.237
1003.75	0.233
1004.17	0.238
1004.59	0.242
1005.01	0.243
1005.43	0.233
1005.85	0.233
1006.28	0.236
1006.70	0.227
1007.12	0.236
1007.54	0.238
1007.96	0.230
1008.38	0.223
1008.80	0.230
1009.22	0.226
1009.64	0.223
1010.06	0.223
1010.48	0.227
1010.90	0.230
1011.32	0.218
1011.74	0.218
1012.16	0.227
1012.58	0.224
1013.00	0.218
1013.42	0.211
1013.84	0.215
1014.26	0.215
1014.67	0.215
1015.09	0.210
1015.51	0.225
1015.93	0.215
1016.35	0.213
1016.77	0.214
1017.19	0.212
1017.61	0.209
1018.03	0.216
1018.45	0.212
1018.87	0.211
1019.29	0.206
1019.71	0.212
1020.13	0.207
1020.55	0.195
1020.97	0.203
1021.38	0.209
1021.80	0.197
1022.22	0.196
1022.64	0.198
1023.06	0.189
1023.48	0.195
1023.90	0.194
1024.32	0.196
1024.74	0.207
1025.15	0.186
1025.57	0.202
1025.99	0.183
1026.41	0.197
1026.83	0.193
1027.25	0.187
1027.67	0.197
1028.08	0.183
1028.50	0.193
1028.92	0.194
1029.34	0.188
1029.76	0.192
1030.18	0.182
1030.60	0.199
1031.01	0.182
1031.43	0.194
1031.85	0.191
1032.27	0.183
1032.69	0.169
1033.10	0.180
1033.52	0.185
1033.94	0.182
1034.36	0.170
1034.78	0.168
1035.19	0.181
1035.61	0.171
1036.03	0.189
1036.45	0.171
1036.87	0.176
1037.28	0.162
1037.70	0.163
1038.12	0.168
1038.54	0.168
1038.95	0.157
1039.37	0.168
1039.79	0.173
1040.21	0.168
1040.62	0.180
1041.04	0.163
1041.46	0.169
1041.88	0.161
1042.29	0.176
1042.71	0.173
1043.13	0.169
1043.55	0.167
1043.96	0.177
1044.38	0.185
1044.80	0.166
1045.21	0.160
1045.63	0.137
1046.05	0.161
1046.47	0.161
1046.88	0.157
1047.30	0.160
1047.72	0.152
1048.13	0.167
1048.55	0.166
1048.97	0.154
1049.38	0.178
1049.80	0.148
1050.22	0.173
1050.63	0.141
1051.05	0.149
1051.47	0.154
1051.88	0.171
1052.30	0.149
1052.72	0.141
1053.13	0.157
1053.55	0.193
1053.97	0.148
1054.38	0.156
1054.80	0.182
1055.21	0.153
1055.63	0.153
1056.05	0.161
1056.46	0.201
1056.88	0.168
1057.29	0.170
1057.71	0.164
1058.13	0.168
1058.54	0.139
1058.96	0.168
1059.37	0.200
1059.79	0.157
1060.21	0.153
1060.62	0.172
1061.04	0.139
1061.45	0.185
1061.87	0.179
1062.28	0.171
1062.70	0.172
1063.12	0.124
1063.53	0.169
1063.95	0.176
1064.36	0.205
1064.78	0.243
1065.19	0.224
1065.61	0.197
1066.02	0.156
1066.44	0.196
1066.85	0.133
1067.27	0.245
1067.68	0.186
1068.10	0.157
1068.51	0.244
1068.93	0.172
1069.35	0.236
1069.76	0.240
1070.17	0.216
1070.59	0.203
1071.00	0.220
1071.42	0.267
1071.83	0.275
1072.25	0.242
1072.66	0.262
1073.08	0.311
1073.49	0.282
1073.91	0.330
1074.32	0.343
1074.74	0.346
1075.15	0.302
1075.57	0.203
1075.98	0.417
1076.40	0.183
1076.81	0.241
1077.22	0.348
1077.64	0.432
1078.05	0.376
1078.47	0.427
1078.88	0.456
1079.30	0.335
1079.71	0.587
1080.12	0.337
1080.54	-0.000
1080.95	0.434
1081.37	0.583
1081.78	0.481
1082.19	0.636
1082.61	0.578
1083.02	0.703
1083.44	0.554
1083.85	1.619
1084.26	-0.000
1084.68	1.097
1085.09	0.638
1085.50	0.657
1085.92	1.259
1086.33	-0.000
1086.74	-0.000
1087.16	1.407
1087.57	-0.000
1087.98	-0.000
1088.40	0.937
1088.81	0.562
1089.22	-0.000
1089.64	-0.000
1090.05	1.038
1090.46	-0.000
1090.88	-0.000
1091.29	-0.000
1091.70	-0.000
1092.12	-0.000
1092.53	-0.000
1092.94	-0.000
1093.36	1.781
1093.77	-0.000
1094.18	-0.000
1094.59	-0.000
1095.01	-0.000
1095.42	-0.000
1095.83	-0.000
1096.25	-0.000
1096.66	-0.000
1097.07	-0.000
1097.48	0.836
1097.90	-0.000
1098.31	-0.000
1098.72	-0.000
1099.13	-0.000
>>>>>End Processed Spectral Data<<<<<
