SpectraSuite Data File
++++++++++++++++++++++++++++++++++++
Date: Sun Apr 24 15:45:45 CEST 2016
User: spectrasuite
Dark Spectrum Present: Yes
Reference Spectrum Present: Yes
Number of Sampled Component Spectra: 1
Spectrometers: HR+C0708
Integration Time (usec): 1000 (HR+C0708)
Spectra Averaged: 10 (HR+C0708)
Boxcar Smoothing: 0 (HR+C0708)
Correct for Electrical Dark: No (HR+C0708)
Strobe/Lamp Enabled: No (HR+C0708)
Correct for Detector Non-linearity: No (HR+C0708)
Correct for Stray Light: No (HR+C0708)
Number of Pixels in Processed Spectrum: 2048
>>>>>Begin Processed Spectral Data<<<<<
188.76	-0.000
189.23	-0.000
189.70	-0.000
190.17	-0.000
190.64	-0.000
191.12	-0.000
191.59	-0.000
192.06	-0.000
192.53	-0.000
193.01	-0.000
193.48	-0.000
193.95	-0.000
194.42	-0.000
194.90	1.512
195.37	-0.000
195.84	-0.000
196.31	-0.000
196.78	-0.000
197.26	-0.000
197.73	-0.000
198.20	-0.000
198.67	-0.000
199.14	-0.000
199.62	-0.000
200.09	-0.000
200.56	-0.000
201.03	-0.000
201.50	-0.000
201.97	-0.000
202.45	-0.000
202.92	-0.000
203.39	1.892
203.86	0.894
204.33	1.346
204.80	-0.000
205.28	-0.000
205.75	-0.000
206.22	-0.000
206.69	1.557
207.16	1.156
207.63	-0.000
208.11	1.294
208.58	-0.000
209.05	2.412
209.52	-0.000
209.99	-0.000
210.46	1.080
210.93	-0.000
211.41	-0.000
211.88	0.953
212.35	1.639
212.82	-0.000
213.29	1.941
213.76	1.913
214.23	-0.000
214.70	-0.000
215.18	-0.000
215.65	1.187
216.12	1.117
216.59	-0.000
217.06	1.815
217.53	1.508
218.00	-0.000
218.47	-0.000
218.94	-0.000
219.41	-0.000
219.89	-0.000
220.36	-0.000
220.83	1.028
221.30	1.745
221.77	-0.000
222.24	-0.000
222.71	-0.000
223.18	-0.000
223.65	-0.000
224.12	-0.000
224.59	-0.000
225.06	-0.000
225.54	2.638
226.01	1.091
226.48	1.603
226.95	-0.000
227.42	1.328
227.89	-0.000
228.36	2.022
228.83	-0.000
229.30	-0.000
229.77	2.409
230.24	2.493
230.71	-0.000
231.18	2.663
231.65	1.898
232.12	2.394
232.59	1.926
233.06	2.202
233.53	-0.000
234.00	2.281
234.47	3.042
234.94	-0.000
235.41	2.613
235.88	-0.000
236.35	-0.000
236.82	3.291
237.29	-0.000
237.76	3.220
238.23	-0.000
238.70	-0.000
239.17	2.650
239.64	-0.000
240.11	-0.000
240.58	-0.000
241.05	-0.000
241.52	2.809
241.99	-0.000
242.46	2.771
242.93	-0.000
243.40	3.105
243.87	2.910
244.34	2.579
244.81	2.802
245.28	-0.000
245.75	-0.000
246.22	-0.000
246.69	3.075
247.16	2.742
247.63	-0.000
248.10	2.659
248.57	-0.000
249.04	-0.000
249.51	-0.000
249.98	3.457
250.45	-0.000
250.92	3.407
251.39	3.083
251.85	3.713
252.32	-0.000
252.79	-0.000
253.26	2.993
253.73	-0.000
254.20	-0.000
254.67	2.641
255.14	2.894
255.61	-0.000
256.08	-0.000
256.55	-0.000
257.02	2.967
257.49	-0.000
257.95	3.152
258.42	2.862
258.89	3.149
259.36	3.445
259.83	3.487
260.30	4.160
260.77	-0.000
261.24	3.225
261.71	4.258
262.17	3.442
262.64	3.032
263.11	3.693
263.58	3.461
264.05	3.550
264.52	2.966
264.99	2.992
265.46	2.869
265.92	3.102
266.39	2.762
266.86	3.289
267.33	3.729
267.80	2.903
268.27	3.231
268.74	2.992
269.20	3.431
269.67	2.868
270.14	2.740
270.61	2.868
271.08	3.018
271.55	2.701
272.01	2.810
272.48	2.739
272.95	2.642
273.42	2.773
273.89	2.650
274.36	2.540
274.82	2.541
275.29	2.481
275.76	2.609
276.23	2.652
276.70	2.489
277.16	2.532
277.63	2.542
278.10	2.606
278.57	2.517
279.04	2.457
279.50	2.564
279.97	2.517
280.44	2.320
280.91	2.417
281.38	2.339
281.84	2.413
282.31	2.481
282.78	2.528
283.25	2.360
283.72	2.312
284.18	2.303
284.65	2.383
285.12	2.332
285.59	2.233
286.05	2.307
286.52	2.286
286.99	2.269
287.46	2.255
287.92	2.249
288.39	2.192
288.86	2.253
289.33	2.223
289.79	2.259
290.26	2.234
290.73	2.134
291.20	2.205
291.66	2.216
292.13	2.149
292.60	2.116
293.07	2.124
293.53	2.072
294.00	2.122
294.47	2.170
294.93	2.122
295.40	2.165
295.87	2.085
296.34	2.117
296.80	2.096
297.27	2.064
297.74	2.082
298.20	2.126
298.67	2.008
299.14	2.022
299.60	2.036
300.07	2.033
300.54	2.032
301.01	1.989
301.47	1.969
301.94	1.997
302.41	1.958
302.87	1.975
303.34	2.047
303.81	1.941
304.27	1.941
304.74	1.933
305.21	1.925
305.67	1.954
306.14	1.887
306.61	1.970
307.07	1.930
307.54	1.893
308.01	1.895
308.47	1.878
308.94	1.907
309.40	1.903
309.87	1.866
310.34	1.857
310.80	1.890
311.27	1.859
311.74	1.865
312.20	1.877
312.67	1.851
313.13	1.816
313.60	1.846
314.07	1.840
314.53	1.782
315.00	1.803
315.47	1.832
315.93	1.789
316.40	1.791
316.86	1.795
317.33	1.791
317.80	1.760
318.26	1.793
318.73	1.790
319.19	1.764
319.66	1.730
320.13	1.747
320.59	1.737
321.06	1.741
321.52	1.739
321.99	1.738
322.45	1.716
322.92	1.685
323.39	1.714
323.85	1.698
324.32	1.688
324.78	1.700
325.25	1.716
325.71	1.666
326.18	1.649
326.64	1.679
327.11	1.633
327.58	1.624
328.04	1.613
328.51	1.644
328.97	1.621
329.44	1.581
329.90	1.577
330.37	1.597
330.83	1.558
331.30	1.586
331.76	1.551
332.23	1.547
332.69	1.520
333.16	1.500
333.62	1.503
334.09	1.488
334.56	1.461
335.02	1.462
335.49	1.448
335.95	1.429
336.42	1.406
336.88	1.409
337.35	1.385
337.81	1.376
338.28	1.359
338.74	1.344
339.20	1.328
339.67	1.297
340.13	1.285
340.60	1.271
341.06	1.252
341.53	1.225
341.99	1.219
342.46	1.191
342.92	1.177
343.39	1.159
343.85	1.147
344.32	1.137
344.78	1.114
345.25	1.103
345.71	1.084
346.17	1.057
346.64	1.044
347.10	1.025
347.57	0.997
348.03	0.982
348.50	0.960
348.96	0.946
349.43	0.936
349.89	0.910
350.35	0.908
350.82	0.883
351.28	0.867
351.75	0.853
352.21	0.844
352.67	0.822
353.14	0.823
353.60	0.800
354.07	0.791
354.53	0.781
355.00	0.769
355.46	0.762
355.92	0.743
356.39	0.735
356.85	0.733
357.31	0.720
357.78	0.710
358.24	0.699
358.71	0.697
359.17	0.689
359.63	0.679
360.10	0.674
360.56	0.668
361.03	0.665
361.49	0.657
361.95	0.651
362.42	0.652
362.88	0.643
363.34	0.639
363.81	0.636
364.27	0.632
364.73	0.634
365.20	0.631
365.66	0.622
366.12	0.617
366.59	0.615
367.05	0.613
367.51	0.614
367.98	0.606
368.44	0.602
368.90	0.604
369.37	0.597
369.83	0.600
370.29	0.598
370.76	0.590
371.22	0.595
371.68	0.588
372.15	0.583
372.61	0.583
373.07	0.580
373.54	0.581
374.00	0.580
374.46	0.577
374.92	0.574
375.39	0.570
375.85	0.571
376.31	0.570
376.78	0.571
377.24	0.568
377.70	0.566
378.16	0.562
378.63	0.558
379.09	0.561
379.55	0.558
380.01	0.560
380.48	0.558
380.94	0.551
381.40	0.546
381.87	0.546
382.33	0.547
382.79	0.543
383.25	0.541
383.72	0.543
384.18	0.543
384.64	0.535
385.10	0.538
385.56	0.537
386.03	0.533
386.49	0.530
386.95	0.528
387.41	0.529
387.88	0.525
388.34	0.526
388.80	0.523
389.26	0.520
389.72	0.521
390.19	0.522
390.65	0.520
391.11	0.515
391.57	0.515
392.04	0.511
392.50	0.511
392.96	0.509
393.42	0.503
393.88	0.509
394.34	0.507
394.81	0.502
395.27	0.500
395.73	0.504
396.19	0.499
396.65	0.501
397.12	0.492
397.58	0.498
398.04	0.490
398.50	0.492
398.96	0.493
399.42	0.496
399.89	0.491
400.35	0.487
400.81	0.486
401.27	0.485
401.73	0.486
402.19	0.481
402.65	0.482
403.12	0.481
403.58	0.476
404.04	0.478
404.50	0.477
404.96	0.472
405.42	0.471
405.88	0.476
406.34	0.472
406.81	0.472
407.27	0.469
407.73	0.464
408.19	0.468
408.65	0.466
409.11	0.462
409.57	0.464
410.03	0.465
410.49	0.461
410.96	0.458
411.42	0.457
411.88	0.455
412.34	0.454
412.80	0.454
413.26	0.449
413.72	0.448
414.18	0.448
414.64	0.450
415.10	0.447
415.56	0.446
416.02	0.446
416.48	0.444
416.95	0.441
417.41	0.444
417.87	0.440
418.33	0.440
418.79	0.435
419.25	0.439
419.71	0.438
420.17	0.434
420.63	0.433
421.09	0.431
421.55	0.429
422.01	0.430
422.47	0.428
422.93	0.430
423.39	0.427
423.85	0.429
424.31	0.426
424.77	0.424
425.23	0.425
425.69	0.427
426.15	0.427
426.61	0.422
427.07	0.417
427.53	0.418
427.99	0.417
428.45	0.418
428.91	0.417
429.37	0.417
429.83	0.411
430.29	0.411
430.75	0.412
431.21	0.415
431.67	0.411
432.13	0.410
432.59	0.407
433.05	0.407
433.51	0.402
433.97	0.405
434.43	0.404
434.89	0.407
435.35	0.404
435.81	0.402
436.27	0.401
436.73	0.396
437.19	0.399
437.65	0.399
438.11	0.393
438.57	0.395
439.03	0.393
439.48	0.392
439.94	0.392
440.40	0.393
440.86	0.393
441.32	0.389
441.78	0.389
442.24	0.390
442.70	0.388
443.16	0.383
443.62	0.386
444.08	0.387
444.54	0.383
444.99	0.384
445.45	0.386
445.91	0.381
446.37	0.381
446.83	0.379
447.29	0.376
447.75	0.378
448.21	0.376
448.67	0.374
449.12	0.375
449.58	0.372
450.04	0.370
450.50	0.377
450.96	0.374
451.42	0.369
451.88	0.366
452.34	0.370
452.79	0.370
453.25	0.368
453.71	0.366
454.17	0.365
454.63	0.367
455.09	0.367
455.55	0.365
456.00	0.362
456.46	0.362
456.92	0.359
457.38	0.364
457.84	0.361
458.30	0.357
458.75	0.360
459.21	0.356
459.67	0.356
460.13	0.355
460.59	0.355
461.04	0.353
461.50	0.353
461.96	0.353
462.42	0.352
462.88	0.350
463.33	0.350
463.79	0.349
464.25	0.350
464.71	0.349
465.17	0.348
465.62	0.348
466.08	0.347
466.54	0.345
467.00	0.348
467.46	0.347
467.91	0.344
468.37	0.343
468.83	0.343
469.29	0.342
469.74	0.343
470.20	0.342
470.66	0.339
471.12	0.336
471.57	0.339
472.03	0.337
472.49	0.336
472.95	0.338
473.40	0.334
473.86	0.333
474.32	0.332
474.78	0.333
475.23	0.328
475.69	0.333
476.15	0.331
476.60	0.333
477.06	0.329
477.52	0.330
477.98	0.327
478.43	0.326
478.89	0.326
479.35	0.325
479.80	0.326
480.26	0.325
480.72	0.325
481.18	0.323
481.63	0.323
482.09	0.322
482.55	0.320
483.00	0.322
483.46	0.320
483.92	0.320
484.37	0.319
484.83	0.315
485.29	0.316
485.74	0.315
486.20	0.317
486.66	0.316
487.11	0.317
487.57	0.311
488.03	0.312
488.48	0.313
488.94	0.312
489.40	0.312
489.85	0.310
490.31	0.310
490.77	0.311
491.22	0.310
491.68	0.307
492.13	0.307
492.59	0.308
493.05	0.308
493.50	0.306
493.96	0.307
494.42	0.305
494.87	0.303
495.33	0.301
495.78	0.306
496.24	0.305
496.70	0.302
497.15	0.301
497.61	0.302
498.06	0.301
498.52	0.297
498.98	0.298
499.43	0.300
499.89	0.299
500.34	0.297
500.80	0.299
501.25	0.298
501.71	0.296
502.17	0.296
502.62	0.297
503.08	0.296
503.53	0.292
503.99	0.291
504.44	0.293
504.90	0.291
505.36	0.289
505.81	0.291
506.27	0.289
506.72	0.292
507.18	0.290
507.63	0.288
508.09	0.289
508.54	0.287
509.00	0.287
509.45	0.286
509.91	0.285
510.36	0.285
510.82	0.285
511.27	0.284
511.73	0.284
512.19	0.283
512.64	0.282
513.10	0.283
513.55	0.284
514.01	0.279
514.46	0.281
514.92	0.281
515.37	0.279
515.83	0.282
516.28	0.278
516.73	0.278
517.19	0.277
517.64	0.276
518.10	0.275
518.55	0.276
519.01	0.272
519.46	0.277
519.92	0.273
520.37	0.272
520.83	0.272
521.28	0.272
521.74	0.273
522.19	0.273
522.65	0.270
523.10	0.270
523.55	0.271
524.01	0.272
524.46	0.270
524.92	0.266
525.37	0.269
525.83	0.268
526.28	0.268
526.73	0.270
527.19	0.268
527.64	0.267
528.10	0.266
528.55	0.267
529.01	0.265
529.46	0.266
529.91	0.265
530.37	0.263
530.82	0.263
531.28	0.261
531.73	0.261
532.18	0.263
532.64	0.261
533.09	0.259
533.54	0.259
534.00	0.259
534.45	0.264
534.91	0.260
535.36	0.261
535.81	0.260
536.27	0.256
536.72	0.261
537.17	0.255
537.63	0.256
538.08	0.252
538.54	0.257
538.99	0.252
539.44	0.256
539.90	0.255
540.35	0.253
540.80	0.253
541.26	0.254
541.71	0.253
542.16	0.252
542.62	0.250
543.07	0.252
543.52	0.252
543.98	0.252
544.43	0.253
544.88	0.249
545.34	0.248
545.79	0.249
546.24	0.247
546.69	0.251
547.15	0.247
547.60	0.246
548.05	0.249
548.51	0.247
548.96	0.247
549.41	0.244
549.86	0.245
550.32	0.245
550.77	0.247
551.22	0.244
551.68	0.242
552.13	0.241
552.58	0.239
553.03	0.246
553.49	0.243
553.94	0.241
554.39	0.242
554.84	0.243
555.30	0.241
555.75	0.239
556.20	0.240
556.65	0.239
557.11	0.238
557.56	0.240
558.01	0.241
558.46	0.241
558.92	0.236
559.37	0.235
559.82	0.239
560.27	0.235
560.72	0.236
561.18	0.235
561.63	0.235
562.08	0.233
562.53	0.235
562.99	0.234
563.44	0.234
563.89	0.231
564.34	0.231
564.79	0.234
565.25	0.231
565.70	0.231
566.15	0.231
566.60	0.230
567.05	0.229
567.50	0.228
567.96	0.228
568.41	0.229
568.86	0.228
569.31	0.228
569.76	0.227
570.21	0.227
570.67	0.226
571.12	0.228
571.57	0.225
572.02	0.225
572.47	0.225
572.92	0.224
573.37	0.225
573.83	0.222
574.28	0.223
574.73	0.223
575.18	0.221
575.63	0.224
576.08	0.221
576.53	0.219
576.98	0.221
577.44	0.216
577.89	0.221
578.34	0.220
578.79	0.218
579.24	0.218
579.69	0.220
580.14	0.215
580.59	0.215
581.04	0.214
581.49	0.215
581.95	0.216
582.40	0.216
582.85	0.215
583.30	0.215
583.75	0.215
584.20	0.216
584.65	0.214
585.10	0.212
585.55	0.213
586.00	0.214
586.45	0.213
586.90	0.213
587.35	0.213
587.80	0.213
588.25	0.209
588.71	0.211
589.16	0.210
589.61	0.210
590.06	0.211
590.51	0.213
590.96	0.210
591.41	0.209
591.86	0.208
592.31	0.210
592.76	0.209
593.21	0.209
593.66	0.209
594.11	0.209
594.56	0.207
595.01	0.208
595.46	0.208
595.91	0.206
596.36	0.206
596.81	0.204
597.26	0.207
597.71	0.207
598.16	0.206
598.61	0.204
599.06	0.206
599.51	0.206
599.96	0.205
600.41	0.205
600.86	0.203
601.31	0.201
601.76	0.204
602.21	0.204
602.65	0.204
603.10	0.203
603.55	0.202
604.00	0.202
604.45	0.201
604.90	0.200
605.35	0.199
605.80	0.202
606.25	0.201
606.70	0.200
607.15	0.200
607.60	0.200
608.05	0.197
608.50	0.199
608.95	0.198
609.39	0.199
609.84	0.197
610.29	0.198
610.74	0.197
611.19	0.195
611.64	0.196
612.09	0.196
612.54	0.197
612.99	0.194
613.44	0.194
613.88	0.196
614.33	0.196
614.78	0.194
615.23	0.195
615.68	0.194
616.13	0.194
616.58	0.193
617.03	0.191
617.47	0.194
617.92	0.191
618.37	0.190
618.82	0.193
619.27	0.190
619.72	0.192
620.17	0.190
620.61	0.189
621.06	0.190
621.51	0.191
621.96	0.191
622.41	0.191
622.86	0.189
623.30	0.188
623.75	0.190
624.20	0.189
624.65	0.187
625.10	0.188
625.54	0.188
625.99	0.185
626.44	0.186
626.89	0.187
627.34	0.188
627.78	0.187
628.23	0.185
628.68	0.185
629.13	0.186
629.58	0.185
630.02	0.185
630.47	0.184
630.92	0.186
631.37	0.184
631.81	0.185
632.26	0.184
632.71	0.183
633.16	0.183
633.61	0.184
634.05	0.179
634.50	0.183
634.95	0.182
635.40	0.184
635.84	0.182
636.29	0.181
636.74	0.182
637.18	0.180
637.63	0.181
638.08	0.179
638.53	0.179
638.97	0.179
639.42	0.182
639.87	0.180
640.32	0.178
640.76	0.179
641.21	0.179
641.66	0.181
642.10	0.179
642.55	0.178
643.00	0.178
643.44	0.179
643.89	0.179
644.34	0.179
644.79	0.177
645.23	0.179
645.68	0.178
646.13	0.177
646.57	0.177
647.02	0.176
647.47	0.179
647.91	0.176
648.36	0.176
648.81	0.175
649.25	0.173
649.70	0.174
650.15	0.174
650.59	0.175
651.04	0.174
651.48	0.177
651.93	0.174
652.38	0.173
652.82	0.174
653.27	0.171
653.72	0.175
654.16	0.173
654.61	0.173
655.06	0.171
655.50	0.170
655.95	0.169
656.39	0.165
656.84	0.168
657.29	0.176
657.73	0.170
658.18	0.171
658.62	0.171
659.07	0.171
659.52	0.171
659.96	0.170
660.41	0.173
660.85	0.169
661.30	0.169
661.74	0.169
662.19	0.169
662.64	0.168
663.08	0.168
663.53	0.169
663.97	0.167
664.42	0.167
664.86	0.169
665.31	0.168
665.75	0.167
666.20	0.168
666.65	0.168
667.09	0.167
667.54	0.169
667.98	0.166
668.43	0.165
668.87	0.166
669.32	0.164
669.76	0.165
670.21	0.166
670.65	0.163
671.10	0.165
671.54	0.166
671.99	0.163
672.43	0.164
672.88	0.165
673.32	0.164
673.77	0.162
674.21	0.162
674.66	0.163
675.10	0.161
675.55	0.161
675.99	0.162
676.44	0.162
676.88	0.164
677.33	0.163
677.77	0.161
678.22	0.161
678.66	0.160
679.11	0.161
679.55	0.160
679.99	0.159
680.44	0.162
680.88	0.161
681.33	0.159
681.77	0.158
682.22	0.160
682.66	0.160
683.11	0.159
683.55	0.159
683.99	0.157
684.44	0.157
684.88	0.158
685.33	0.156
685.77	0.159
686.21	0.160
686.66	0.159
687.10	0.159
687.55	0.157
687.99	0.158
688.44	0.159
688.88	0.158
689.32	0.158
689.77	0.157
690.21	0.156
690.65	0.157
691.10	0.155
691.54	0.158
691.99	0.156
692.43	0.154
692.87	0.155
693.32	0.156
693.76	0.154
694.20	0.156
694.65	0.156
695.09	0.156
695.53	0.154
695.98	0.154
696.42	0.154
696.86	0.154
697.31	0.152
697.75	0.154
698.19	0.152
698.64	0.154
699.08	0.153
699.52	0.152
699.97	0.154
700.41	0.152
700.85	0.153
701.30	0.151
701.74	0.153
702.18	0.153
702.63	0.150
703.07	0.153
703.51	0.153
703.96	0.151
704.40	0.153
704.84	0.151
705.28	0.150
705.73	0.150
706.17	0.153
706.61	0.149
707.06	0.150
707.50	0.149
707.94	0.149
708.38	0.149
708.83	0.155
709.27	0.150
709.71	0.150
710.15	0.151
710.60	0.150
711.04	0.148
711.48	0.152
711.92	0.152
712.37	0.150
712.81	0.151
713.25	0.150
713.69	0.149
714.13	0.151
714.58	0.149
715.02	0.147
715.46	0.149
715.90	0.148
716.35	0.145
716.79	0.149
717.23	0.152
717.67	0.149
718.11	0.151
718.56	0.148
719.00	0.148
719.44	0.148
719.88	0.145
720.32	0.149
720.76	0.148
721.21	0.148
721.65	0.148
722.09	0.151
722.53	0.149
722.97	0.148
723.41	0.148
723.86	0.148
724.30	0.148
724.74	0.149
725.18	0.147
725.62	0.147
726.06	0.147
726.50	0.147
726.95	0.149
727.39	0.148
727.83	0.149
728.27	0.148
728.71	0.150
729.15	0.148
729.59	0.150
730.03	0.145
730.48	0.147
730.92	0.145
731.36	0.148
731.80	0.147
732.24	0.148
732.68	0.146
733.12	0.146
733.56	0.146
734.00	0.147
734.44	0.148
734.89	0.146
735.33	0.147
735.77	0.150
736.21	0.149
736.65	0.144
737.09	0.149
737.53	0.149
737.97	0.149
738.41	0.147
738.85	0.150
739.29	0.147
739.73	0.145
740.17	0.146
740.61	0.148
741.05	0.148
741.49	0.147
741.93	0.147
742.37	0.144
742.81	0.147
743.26	0.146
743.70	0.147
744.14	0.146
744.58	0.148
745.02	0.144
745.46	0.147
745.90	0.147
746.34	0.147
746.78	0.145
747.22	0.146
747.66	0.146
748.10	0.146
748.54	0.145
748.98	0.142
749.42	0.146
749.86	0.145
750.29	0.144
750.73	0.142
751.17	0.142
751.61	0.142
752.05	0.146
752.49	0.143
752.93	0.143
753.37	0.142
753.81	0.143
754.25	0.142
754.69	0.142
755.13	0.139
755.57	0.143
756.01	0.145
756.45	0.141
756.89	0.143
757.33	0.143
757.77	0.141
758.21	0.140
758.64	0.139
759.08	0.137
759.52	0.142
759.96	0.143
760.40	0.142
760.84	0.140
761.28	0.139
761.72	0.141
762.16	0.143
762.60	0.140
763.03	0.140
763.47	0.140
763.91	0.142
764.35	0.139
764.79	0.137
765.23	0.136
765.67	0.137
766.11	0.136
766.54	0.135
766.98	0.139
767.42	0.138
767.86	0.134
768.30	0.139
768.74	0.141
769.17	0.142
769.61	0.140
770.05	0.137
770.49	0.139
770.93	0.141
771.37	0.134
771.80	0.138
772.24	0.136
772.68	0.137
773.12	0.138
773.56	0.135
774.00	0.138
774.43	0.134
774.87	0.136
775.31	0.136
775.75	0.134
776.19	0.138
776.62	0.133
777.06	0.138
777.50	0.134
777.94	0.136
778.37	0.133
778.81	0.136
779.25	0.136
779.69	0.135
780.13	0.138
780.56	0.135
781.00	0.136
781.44	0.134
781.88	0.135
782.31	0.133
782.75	0.133
783.19	0.135
783.63	0.133
784.06	0.135
784.50	0.137
784.94	0.134
785.37	0.134
785.81	0.135
786.25	0.134
786.69	0.131
787.12	0.132
787.56	0.131
788.00	0.132
788.43	0.135
788.87	0.133
789.31	0.133
789.75	0.135
790.18	0.131
790.62	0.134
791.06	0.130
791.49	0.133
791.93	0.129
792.37	0.134
792.80	0.130
793.24	0.131
793.68	0.135
794.11	0.134
794.55	0.133
794.99	0.134
795.42	0.132
795.86	0.135
796.30	0.131
796.73	0.131
797.17	0.132
797.61	0.128
798.04	0.131
798.48	0.132
798.91	0.130
799.35	0.131
799.79	0.132
800.22	0.130
800.66	0.128
801.10	0.135
801.53	0.130
801.97	0.134
802.40	0.133
802.84	0.132
803.28	0.129
803.71	0.134
804.15	0.131
804.58	0.131
805.02	0.131
805.46	0.128
805.89	0.128
806.33	0.133
806.76	0.129
807.20	0.129
807.63	0.128
808.07	0.132
808.51	0.126
808.94	0.127
809.38	0.129
809.81	0.129
810.25	0.130
810.68	0.129
811.12	0.130
811.55	0.130
811.99	0.127
812.42	0.131
812.86	0.128
813.29	0.128
813.73	0.128
814.17	0.127
814.60	0.125
815.04	0.128
815.47	0.125
815.91	0.125
816.34	0.128
816.78	0.124
817.21	0.133
817.65	0.126
818.08	0.123
818.52	0.129
818.95	0.131
819.39	0.132
819.82	0.126
820.25	0.128
820.69	0.127
821.12	0.128
821.56	0.127
821.99	0.128
822.43	0.125
822.86	0.130
823.30	0.133
823.73	0.128
824.17	0.126
824.60	0.124
825.04	0.130
825.47	0.129
825.90	0.127
826.34	0.128
826.77	0.128
827.21	0.130
827.64	0.133
828.08	0.130
828.51	0.126
828.94	0.127
829.38	0.128
829.81	0.134
830.25	0.130
830.68	0.129
831.11	0.134
831.55	0.131
831.98	0.128
832.42	0.128
832.85	0.132
833.28	0.133
833.72	0.133
834.15	0.128
834.58	0.131
835.02	0.134
835.45	0.132
835.88	0.135
836.32	0.133
836.75	0.130
837.19	0.133
837.62	0.133
838.05	0.133
838.49	0.132
838.92	0.131
839.35	0.136
839.79	0.130
840.22	0.134
840.65	0.128
841.09	0.133
841.52	0.127
841.95	0.130
842.39	0.133
842.82	0.128
843.25	0.130
843.68	0.132
844.12	0.130
844.55	0.128
844.98	0.133
845.42	0.132
845.85	0.129
846.28	0.131
846.71	0.133
847.15	0.132
847.58	0.132
848.01	0.133
848.45	0.136
848.88	0.131
849.31	0.131
849.74	0.130
850.18	0.133
850.61	0.132
851.04	0.130
851.47	0.135
851.91	0.139
852.34	0.135
852.77	0.135
853.20	0.135
853.64	0.133
854.07	0.136
854.50	0.136
854.93	0.136
855.36	0.134
855.80	0.127
856.23	0.129
856.66	0.135
857.09	0.128
857.52	0.129
857.96	0.128
858.39	0.129
858.82	0.128
859.25	0.137
859.68	0.133
860.12	0.133
860.55	0.132
860.98	0.135
861.41	0.134
861.84	0.130
862.27	0.131
862.71	0.135
863.14	0.127
863.57	0.131
864.00	0.131
864.43	0.133
864.86	0.134
865.30	0.133
865.73	0.129
866.16	0.128
866.59	0.135
867.02	0.129
867.45	0.130
867.88	0.135
868.31	0.134
868.75	0.131
869.18	0.133
869.61	0.135
870.04	0.129
870.47	0.133
870.90	0.135
871.33	0.132
871.76	0.136
872.19	0.137
872.62	0.129
873.06	0.126
873.49	0.132
873.92	0.134
874.35	0.134
874.78	0.134
875.21	0.133
875.64	0.132
876.07	0.137
876.50	0.134
876.93	0.138
877.36	0.134
877.79	0.133
878.22	0.132
878.65	0.134
879.08	0.133
879.51	0.140
879.94	0.131
880.37	0.140
880.80	0.140
881.23	0.134
881.67	0.139
882.10	0.134
882.53	0.134
882.96	0.139
883.39	0.140
883.82	0.136
884.25	0.138
884.68	0.137
885.11	0.133
885.54	0.139
885.97	0.138
886.39	0.132
886.82	0.130
887.25	0.136
887.68	0.139
888.11	0.139
888.54	0.134
888.97	0.139
889.40	0.136
889.83	0.133
890.26	0.137
890.69	0.133
891.12	0.133
891.55	0.134
891.98	0.136
892.41	0.134
892.84	0.135
893.27	0.136
893.70	0.135
894.13	0.139
894.56	0.137
894.98	0.138
895.41	0.141
895.84	0.137
896.27	0.137
896.70	0.140
897.13	0.139
897.56	0.136
897.99	0.141
898.42	0.135
898.85	0.140
899.27	0.138
899.70	0.139
900.13	0.135
900.56	0.141
900.99	0.139
901.42	0.139
901.85	0.139
902.28	0.135
902.70	0.136
903.13	0.138
903.56	0.138
903.99	0.138
904.42	0.139
904.85	0.141
905.27	0.135
905.70	0.139
906.13	0.137
906.56	0.135
906.99	0.138
907.42	0.136
907.84	0.136
908.27	0.137
908.70	0.139
909.13	0.139
909.56	0.137
909.98	0.138
910.41	0.136
910.84	0.139
911.27	0.138
911.70	0.135
912.12	0.137
912.55	0.137
912.98	0.136
913.41	0.139
913.84	0.137
914.26	0.137
914.69	0.138
915.12	0.137
915.55	0.134
915.97	0.138
916.40	0.140
916.83	0.137
917.26	0.137
917.68	0.137
918.11	0.138
918.54	0.138
918.97	0.134
919.39	0.135
919.82	0.136
920.25	0.135
920.67	0.136
921.10	0.141
921.53	0.141
921.96	0.144
922.38	0.141
922.81	0.138
923.24	0.143
923.66	0.139
924.09	0.143
924.52	0.144
924.94	0.143
925.37	0.144
925.80	0.145
926.22	0.140
926.65	0.143
927.08	0.146
927.50	0.141
927.93	0.146
928.36	0.142
928.78	0.146
929.21	0.146
929.64	0.150
930.06	0.152
930.49	0.149
930.92	0.153
931.34	0.150
931.77	0.155
932.20	0.152
932.62	0.154
933.05	0.154
933.47	0.157
933.90	0.153
934.33	0.155
934.75	0.158
935.18	0.163
935.61	0.158
936.03	0.161
936.46	0.162
936.88	0.162
937.31	0.167
937.73	0.165
938.16	0.164
938.59	0.171
939.01	0.176
939.44	0.174
939.86	0.175
940.29	0.181
940.71	0.175
941.14	0.175
941.57	0.182
941.99	0.183
942.42	0.184
942.84	0.191
943.27	0.200
943.69	0.189
944.12	0.193
944.54	0.200
944.97	0.190
945.39	0.197
945.82	0.199
946.24	0.203
946.67	0.206
947.09	0.211
947.52	0.198
947.94	0.207
948.37	0.207
948.79	0.209
949.22	0.218
949.64	0.210
950.07	0.220
950.49	0.220
950.92	0.218
951.34	0.224
951.77	0.225
952.19	0.226
952.62	0.238
953.04	0.240
953.47	0.237
953.89	0.242
954.32	0.242
954.74	0.243
955.17	0.243
955.59	0.259
956.01	0.255
956.44	0.255
956.86	0.261
957.29	0.267
957.71	0.269
958.14	0.267
958.56	0.267
958.98	0.275
959.41	0.274
959.83	0.274
960.26	0.275
960.68	0.284
961.10	0.279
961.53	0.281
961.95	0.284
962.38	0.284
962.80	0.275
963.22	0.282
963.65	0.285
964.07	0.288
964.50	0.286
964.92	0.289
965.34	0.285
965.77	0.285
966.19	0.291
966.61	0.288
967.04	0.290
967.46	0.293
967.88	0.293
968.31	0.287
968.73	0.288
969.15	0.290
969.58	0.289
970.00	0.295
970.42	0.295
970.85	0.286
971.27	0.290
971.69	0.292
972.12	0.289
972.54	0.294
972.96	0.297
973.39	0.299
973.81	0.294
974.23	0.301
974.65	0.297
975.08	0.292
975.50	0.297
975.92	0.299
976.35	0.297
976.77	0.300
977.19	0.295
977.61	0.291
978.04	0.289
978.46	0.305
978.88	0.294
979.30	0.299
979.73	0.296
980.15	0.302
980.57	0.302
980.99	0.293
981.42	0.296
981.84	0.300
982.26	0.290
982.68	0.291
983.11	0.299
983.53	0.297
983.95	0.298
984.37	0.293
984.79	0.293
985.22	0.295
985.64	0.295
986.06	0.294
986.48	0.292
986.90	0.291
987.33	0.287
987.75	0.285
988.17	0.288
988.59	0.286
989.01	0.283
989.43	0.285
989.86	0.284
990.28	0.288
990.70	0.288
991.12	0.291
991.54	0.291
991.96	0.286
992.39	0.286
992.81	0.280
993.23	0.283
993.65	0.281
994.07	0.283
994.49	0.278
994.91	0.277
995.34	0.273
995.76	0.276
996.18	0.278
996.60	0.277
997.02	0.282
997.44	0.269
997.86	0.274
998.28	0.276
998.70	0.279
999.12	0.274
999.55	0.273
999.97	0.275
1000.39	0.274
1000.81	0.270
1001.23	0.262
1001.65	0.279
1002.07	0.268
1002.49	0.268
1002.91	0.262
1003.33	0.268
1003.75	0.270
1004.17	0.263
1004.59	0.259
1005.01	0.260
1005.43	0.255
1005.85	0.258
1006.28	0.261
1006.70	0.254
1007.12	0.258
1007.54	0.257
1007.96	0.259
1008.38	0.254
1008.80	0.252
1009.22	0.247
1009.64	0.252
1010.06	0.248
1010.48	0.255
1010.90	0.262
1011.32	0.248
1011.74	0.236
1012.16	0.243
1012.58	0.248
1013.00	0.242
1013.42	0.229
1013.84	0.234
1014.26	0.247
1014.67	0.232
1015.09	0.233
1015.51	0.237
1015.93	0.237
1016.35	0.235
1016.77	0.237
1017.19	0.221
1017.61	0.238
1018.03	0.237
1018.45	0.232
1018.87	0.234
1019.29	0.230
1019.71	0.225
1020.13	0.234
1020.55	0.233
1020.97	0.222
1021.38	0.222
1021.80	0.221
1022.22	0.230
1022.64	0.221
1023.06	0.224
1023.48	0.224
1023.90	0.214
1024.32	0.227
1024.74	0.226
1025.15	0.214
1025.57	0.210
1025.99	0.217
1026.41	0.223
1026.83	0.214
1027.25	0.220
1027.67	0.224
1028.08	0.210
1028.50	0.214
1028.92	0.219
1029.34	0.207
1029.76	0.219
1030.18	0.203
1030.60	0.215
1031.01	0.207
1031.43	0.210
1031.85	0.217
1032.27	0.211
1032.69	0.209
1033.10	0.204
1033.52	0.205
1033.94	0.198
1034.36	0.195
1034.78	0.201
1035.19	0.207
1035.61	0.188
1036.03	0.210
1036.45	0.202
1036.87	0.194
1037.28	0.194
1037.70	0.196
1038.12	0.195
1038.54	0.206
1038.95	0.186
1039.37	0.199
1039.79	0.206
1040.21	0.181
1040.62	0.199
1041.04	0.187
1041.46	0.178
1041.88	0.186
1042.29	0.174
1042.71	0.189
1043.13	0.200
1043.55	0.188
1043.96	0.197
1044.38	0.200
1044.80	0.193
1045.21	0.171
1045.63	0.180
1046.05	0.174
1046.47	0.200
1046.88	0.183
1047.30	0.181
1047.72	0.182
1048.13	0.177
1048.55	0.192
1048.97	0.187
1049.38	0.176
1049.80	0.181
1050.22	0.202
1050.63	0.165
1051.05	0.197
1051.47	0.178
1051.88	0.170
1052.30	0.204
1052.72	0.188
1053.13	0.170
1053.55	0.180
1053.97	0.165
1054.38	0.202
1054.80	0.197
1055.21	0.191
1055.63	0.173
1056.05	0.160
1056.46	0.182
1056.88	0.214
1057.29	0.167
1057.71	0.223
1058.13	0.209
1058.54	0.197
1058.96	0.166
1059.37	0.210
1059.79	0.183
1060.21	0.180
1060.62	0.197
1061.04	0.163
1061.45	0.241
1061.87	0.202
1062.28	0.192
1062.70	0.247
1063.12	0.190
1063.53	0.211
1063.95	0.175
1064.36	0.209
1064.78	0.195
1065.19	0.211
1065.61	0.197
1066.02	0.265
1066.44	0.199
1066.85	0.233
1067.27	0.262
1067.68	0.183
1068.10	0.173
1068.51	0.242
1068.93	0.251
1069.35	0.342
1069.76	0.308
1070.17	0.253
1070.59	0.283
1071.00	0.254
1071.42	0.241
1071.83	0.451
1072.25	0.290
1072.66	0.380
1073.08	0.433
1073.49	0.445
1073.91	0.296
1074.32	0.415
1074.74	0.325
1075.15	0.422
1075.57	0.295
1075.98	0.589
1076.40	0.362
1076.81	0.297
1077.22	0.304
1077.64	0.396
1078.05	0.384
1078.47	0.492
1078.88	0.735
1079.30	0.566
1079.71	0.611
1080.12	1.444
1080.54	-0.000
1080.95	0.794
1081.37	0.476
1081.78	0.223
1082.19	0.450
1082.61	0.578
1083.02	-0.000
1083.44	1.366
1083.85	0.467
1084.26	-0.000
1084.68	1.449
1085.09	1.115
1085.50	-0.000
1085.92	-0.000
1086.33	-0.000
1086.74	-0.000
1087.16	-0.000
1087.57	-0.000
1087.98	-0.000
1088.40	1.176
1088.81	1.299
1089.22	-0.000
1089.64	-0.000
1090.05	-0.000
1090.46	-0.000
1090.88	-0.000
1091.29	-0.000
1091.70	-0.000
1092.12	-0.000
1092.53	-0.000
1092.94	-0.000
1093.36	1.480
1093.77	-0.000
1094.18	0.921
1094.59	-0.000
1095.01	-0.000
1095.42	-0.000
1095.83	-0.000
1096.25	-0.000
1096.66	-0.000
1097.07	-0.000
1097.48	0.765
1097.90	-0.000
1098.31	-0.000
1098.72	-0.000
1099.13	-0.000
>>>>>End Processed Spectral Data<<<<<
