SpectraSuite Data File
++++++++++++++++++++++++++++++++++++
Date: Sun Apr 24 16:57:05 CEST 2016
User: spectrasuite
Dark Spectrum Present: Yes
Reference Spectrum Present: Yes
Number of Sampled Component Spectra: 1
Spectrometers: HR+C0708
Integration Time (usec): 1000 (HR+C0708)
Spectra Averaged: 10 (HR+C0708)
Boxcar Smoothing: 0 (HR+C0708)
Correct for Electrical Dark: No (HR+C0708)
Strobe/Lamp Enabled: No (HR+C0708)
Correct for Detector Non-linearity: No (HR+C0708)
Correct for Stray Light: No (HR+C0708)
Number of Pixels in Processed Spectrum: 2048
>>>>>Begin Processed Spectral Data<<<<<
188.76	-0.000
189.23	-0.000
189.70	-0.000
190.17	-0.000
190.64	-0.000
191.12	-0.000
191.59	-0.000
192.06	-0.000
192.53	-0.000
193.01	-0.000
193.48	-0.000
193.95	-0.000
194.42	-0.000
194.90	-0.000
195.37	-0.000
195.84	-0.000
196.31	-0.000
196.78	-0.000
197.26	-0.000
197.73	-0.000
198.20	-0.000
198.67	-0.000
199.14	-0.000
199.62	-0.000
200.09	-0.000
200.56	-0.000
201.03	-0.000
201.50	-0.000
201.97	-0.000
202.45	-0.000
202.92	2.098
203.39	0.898
203.86	1.483
204.33	-0.000
204.80	-0.000
205.28	1.765
205.75	-0.000
206.22	-0.000
206.69	-0.000
207.16	-0.000
207.63	1.129
208.11	1.166
208.58	-0.000
209.05	2.111
209.52	-0.000
209.99	-0.000
210.46	-0.000
210.93	2.694
211.41	-0.000
211.88	1.445
212.35	-0.000
212.82	-0.000
213.29	0.780
213.76	0.919
214.23	1.034
214.70	-0.000
215.18	1.334
215.65	-0.000
216.12	1.108
216.59	-0.000
217.06	-0.000
217.53	-0.000
218.00	-0.000
218.47	1.001
218.94	-0.000
219.41	0.986
219.89	1.438
220.36	-0.000
220.83	2.049
221.30	-0.000
221.77	1.580
222.24	-0.000
222.71	-0.000
223.18	-0.000
223.65	-0.000
224.12	-0.000
224.59	-0.000
225.06	2.429
225.54	-0.000
226.01	1.171
226.48	-0.000
226.95	1.937
227.42	-0.000
227.89	-0.000
228.36	1.917
228.83	-0.000
229.30	1.953
229.77	1.677
230.24	1.809
230.71	-0.000
231.18	-0.000
231.65	3.417
232.12	1.948
232.59	2.777
233.06	2.610
233.53	1.815
234.00	2.722
234.47	-0.000
234.94	-0.000
235.41	2.584
235.88	-0.000
236.35	-0.000
236.82	3.717
237.29	2.848
237.76	3.006
238.23	2.880
238.70	2.911
239.17	-0.000
239.64	2.926
240.11	2.783
240.58	3.043
241.05	-0.000
241.52	2.482
241.99	-0.000
242.46	-0.000
242.93	-0.000
243.40	3.077
243.87	2.697
244.34	2.841
244.81	-0.000
245.28	-0.000
245.75	-0.000
246.22	3.269
246.69	3.054
247.16	3.130
247.63	-0.000
248.10	2.929
248.57	-0.000
249.04	-0.000
249.51	-0.000
249.98	3.433
250.45	3.315
250.92	-0.000
251.39	-0.000
251.85	4.713
252.32	-0.000
252.79	-0.000
253.26	2.977
253.73	-0.000
254.20	2.962
254.67	3.171
255.14	3.054
255.61	3.813
256.08	4.057
256.55	-0.000
257.02	2.897
257.49	3.583
257.95	2.922
258.42	3.148
258.89	2.852
259.36	2.909
259.83	2.905
260.30	2.951
260.77	3.064
261.24	2.835
261.71	3.178
262.17	2.779
262.64	2.703
263.11	2.811
263.58	2.875
264.05	2.761
264.52	2.622
264.99	2.544
265.46	2.624
265.92	2.715
266.39	2.552
266.86	2.644
267.33	2.556
267.80	2.477
268.27	2.594
268.74	2.408
269.20	2.597
269.67	2.497
270.14	2.340
270.61	2.407
271.08	2.343
271.55	2.334
272.01	2.391
272.48	2.349
272.95	2.320
273.42	2.308
273.89	2.274
274.36	2.233
274.82	2.213
275.29	2.183
275.76	2.176
276.23	2.182
276.70	2.207
277.16	2.155
277.63	2.093
278.10	2.059
278.57	2.099
279.04	2.117
279.50	2.087
279.97	2.099
280.44	1.998
280.91	2.014
281.38	1.991
281.84	2.050
282.31	2.028
282.78	2.065
283.25	2.023
283.72	1.972
284.18	2.007
284.65	1.982
285.12	1.960
285.59	1.892
286.05	1.952
286.52	1.936
286.99	1.932
287.46	1.902
287.92	1.904
288.39	1.877
288.86	1.891
289.33	1.874
289.79	1.855
290.26	1.852
290.73	1.807
291.20	1.807
291.66	1.824
292.13	1.818
292.60	1.754
293.07	1.784
293.53	1.766
294.00	1.777
294.47	1.765
294.93	1.754
295.40	1.750
295.87	1.708
296.34	1.755
296.80	1.720
297.27	1.712
297.74	1.711
298.20	1.699
298.67	1.699
299.14	1.701
299.60	1.681
300.07	1.673
300.54	1.664
301.01	1.636
301.47	1.627
301.94	1.636
302.41	1.628
302.87	1.629
303.34	1.637
303.81	1.617
304.27	1.601
304.74	1.591
305.21	1.585
305.67	1.589
306.14	1.557
306.61	1.577
307.07	1.578
307.54	1.563
308.01	1.548
308.47	1.530
308.94	1.551
309.40	1.538
309.87	1.540
310.34	1.512
310.80	1.531
311.27	1.516
311.74	1.497
312.20	1.509
312.67	1.480
313.13	1.476
313.60	1.486
314.07	1.467
314.53	1.443
315.00	1.447
315.47	1.473
315.93	1.453
316.40	1.427
316.86	1.432
317.33	1.424
317.80	1.422
318.26	1.426
318.73	1.416
319.19	1.414
319.66	1.395
320.13	1.401
320.59	1.393
321.06	1.387
321.52	1.399
321.99	1.371
322.45	1.376
322.92	1.364
323.39	1.367
323.85	1.382
324.32	1.359
324.78	1.351
325.25	1.360
325.71	1.335
326.18	1.322
326.64	1.345
327.11	1.338
327.58	1.316
328.04	1.314
328.51	1.314
328.97	1.305
329.44	1.285
329.90	1.298
330.37	1.292
330.83	1.288
331.30	1.282
331.76	1.282
332.23	1.266
332.69	1.254
333.16	1.244
333.62	1.247
334.09	1.244
334.56	1.230
335.02	1.226
335.49	1.213
335.95	1.211
336.42	1.203
336.88	1.194
337.35	1.182
337.81	1.177
338.28	1.174
338.74	1.168
339.20	1.159
339.67	1.145
340.13	1.137
340.60	1.133
341.06	1.110
341.53	1.101
341.99	1.102
342.46	1.091
342.92	1.079
343.39	1.068
343.85	1.057
344.32	1.051
344.78	1.036
345.25	1.033
345.71	1.026
346.17	1.010
346.64	1.001
347.10	0.988
347.57	0.974
348.03	0.961
348.50	0.941
348.96	0.943
349.43	0.935
349.89	0.911
350.35	0.902
350.82	0.898
351.28	0.889
351.75	0.870
352.21	0.870
352.67	0.854
353.14	0.839
353.60	0.826
354.07	0.821
354.53	0.810
355.00	0.796
355.46	0.790
355.92	0.778
356.39	0.767
356.85	0.760
357.31	0.752
357.78	0.745
358.24	0.729
358.71	0.723
359.17	0.720
359.63	0.710
360.10	0.706
360.56	0.701
361.03	0.696
361.49	0.686
361.95	0.681
362.42	0.681
362.88	0.673
363.34	0.671
363.81	0.666
364.27	0.664
364.73	0.659
365.20	0.657
365.66	0.649
366.12	0.651
366.59	0.648
367.05	0.642
367.51	0.641
367.98	0.637
368.44	0.627
368.90	0.629
369.37	0.626
369.83	0.627
370.29	0.622
370.76	0.620
371.22	0.621
371.68	0.612
372.15	0.611
372.61	0.605
373.07	0.612
373.54	0.609
374.00	0.609
374.46	0.603
374.92	0.598
375.39	0.599
375.85	0.597
376.31	0.598
376.78	0.593
377.24	0.591
377.70	0.592
378.16	0.588
378.63	0.586
379.09	0.583
379.55	0.581
380.01	0.581
380.48	0.580
380.94	0.576
381.40	0.574
381.87	0.568
382.33	0.574
382.79	0.572
383.25	0.567
383.72	0.568
384.18	0.564
384.64	0.562
385.10	0.563
385.56	0.559
386.03	0.557
386.49	0.553
386.95	0.553
387.41	0.552
387.88	0.554
388.34	0.546
388.80	0.548
389.26	0.548
389.72	0.546
390.19	0.545
390.65	0.543
391.11	0.541
391.57	0.539
392.04	0.535
392.50	0.535
392.96	0.537
393.42	0.528
393.88	0.534
394.34	0.530
394.81	0.525
395.27	0.524
395.73	0.526
396.19	0.523
396.65	0.521
397.12	0.519
397.58	0.516
398.04	0.519
398.50	0.515
398.96	0.516
399.42	0.515
399.89	0.512
400.35	0.510
400.81	0.507
401.27	0.508
401.73	0.505
402.19	0.503
402.65	0.506
403.12	0.504
403.58	0.500
404.04	0.500
404.50	0.499
404.96	0.494
405.42	0.496
405.88	0.493
406.34	0.492
406.81	0.488
407.27	0.488
407.73	0.489
408.19	0.486
408.65	0.483
409.11	0.481
409.57	0.487
410.03	0.481
410.49	0.483
410.96	0.482
411.42	0.476
411.88	0.474
412.34	0.472
412.80	0.477
413.26	0.471
413.72	0.470
414.18	0.470
414.64	0.473
415.10	0.471
415.56	0.467
416.02	0.469
416.48	0.463
416.95	0.463
417.41	0.463
417.87	0.462
418.33	0.460
418.79	0.457
419.25	0.457
419.71	0.456
420.17	0.457
420.63	0.455
421.09	0.449
421.55	0.450
422.01	0.452
422.47	0.452
422.93	0.450
423.39	0.450
423.85	0.447
424.31	0.444
424.77	0.444
425.23	0.444
425.69	0.443
426.15	0.444
426.61	0.438
427.07	0.437
427.53	0.439
427.99	0.434
428.45	0.436
428.91	0.436
429.37	0.433
429.83	0.434
430.29	0.429
430.75	0.433
431.21	0.433
431.67	0.430
432.13	0.431
432.59	0.424
433.05	0.430
433.51	0.422
433.97	0.423
434.43	0.429
434.89	0.426
435.35	0.418
435.81	0.420
436.27	0.418
436.73	0.420
437.19	0.414
437.65	0.417
438.11	0.417
438.57	0.414
439.03	0.415
439.48	0.414
439.94	0.410
440.40	0.409
440.86	0.412
441.32	0.406
441.78	0.410
442.24	0.406
442.70	0.406
443.16	0.402
443.62	0.402
444.08	0.405
444.54	0.403
444.99	0.396
445.45	0.397
445.91	0.399
446.37	0.399
446.83	0.397
447.29	0.399
447.75	0.392
448.21	0.396
448.67	0.393
449.12	0.394
449.58	0.392
450.04	0.389
450.50	0.392
450.96	0.393
451.42	0.387
451.88	0.383
452.34	0.385
452.79	0.385
453.25	0.385
453.71	0.386
454.17	0.379
454.63	0.388
455.09	0.384
455.55	0.380
456.00	0.381
456.46	0.375
456.92	0.375
457.38	0.379
457.84	0.375
458.30	0.372
458.75	0.372
459.21	0.368
459.67	0.375
460.13	0.372
460.59	0.370
461.04	0.370
461.50	0.367
461.96	0.366
462.42	0.367
462.88	0.366
463.33	0.365
463.79	0.363
464.25	0.365
464.71	0.362
465.17	0.361
465.62	0.361
466.08	0.362
466.54	0.362
467.00	0.361
467.46	0.360
467.91	0.356
468.37	0.357
468.83	0.359
469.29	0.357
469.74	0.356
470.20	0.355
470.66	0.354
471.12	0.351
471.57	0.354
472.03	0.351
472.49	0.353
472.95	0.351
473.40	0.347
473.86	0.346
474.32	0.347
474.78	0.348
475.23	0.346
475.69	0.345
476.15	0.345
476.60	0.347
477.06	0.343
477.52	0.342
477.98	0.341
478.43	0.337
478.89	0.338
479.35	0.339
479.80	0.341
480.26	0.339
480.72	0.338
481.18	0.338
481.63	0.335
482.09	0.336
482.55	0.337
483.00	0.334
483.46	0.332
483.92	0.333
484.37	0.333
484.83	0.329
485.29	0.328
485.74	0.329
486.20	0.330
486.66	0.328
487.11	0.329
487.57	0.329
488.03	0.328
488.48	0.327
488.94	0.324
489.40	0.325
489.85	0.324
490.31	0.325
490.77	0.324
491.22	0.320
491.68	0.321
492.13	0.322
492.59	0.322
493.05	0.322
493.50	0.321
493.96	0.318
494.42	0.318
494.87	0.315
495.33	0.315
495.78	0.317
496.24	0.316
496.70	0.313
497.15	0.315
497.61	0.317
498.06	0.313
498.52	0.310
498.98	0.310
499.43	0.313
499.89	0.308
500.34	0.310
500.80	0.309
501.25	0.308
501.71	0.308
502.17	0.307
502.62	0.311
503.08	0.307
503.53	0.304
503.99	0.306
504.44	0.305
504.90	0.305
505.36	0.304
505.81	0.303
506.27	0.304
506.72	0.303
507.18	0.304
507.63	0.300
508.09	0.300
508.54	0.297
509.00	0.302
509.45	0.299
509.91	0.299
510.36	0.299
510.82	0.296
511.27	0.295
511.73	0.298
512.19	0.295
512.64	0.295
513.10	0.294
513.55	0.293
514.01	0.293
514.46	0.295
514.92	0.290
515.37	0.292
515.83	0.292
516.28	0.288
516.73	0.291
517.19	0.289
517.64	0.286
518.10	0.289
518.55	0.286
519.01	0.286
519.46	0.283
519.92	0.287
520.37	0.285
520.83	0.283
521.28	0.283
521.74	0.284
522.19	0.286
522.65	0.283
523.10	0.281
523.55	0.284
524.01	0.284
524.46	0.280
524.92	0.277
525.37	0.278
525.83	0.279
526.28	0.278
526.73	0.278
527.19	0.280
527.64	0.278
528.10	0.276
528.55	0.278
529.01	0.277
529.46	0.275
529.91	0.274
530.37	0.273
530.82	0.273
531.28	0.273
531.73	0.272
532.18	0.272
532.64	0.272
533.09	0.273
533.54	0.270
534.00	0.267
534.45	0.274
534.91	0.271
535.36	0.272
535.81	0.269
536.27	0.267
536.72	0.269
537.17	0.267
537.63	0.268
538.08	0.265
538.54	0.268
538.99	0.266
539.44	0.266
539.90	0.265
540.35	0.263
540.80	0.263
541.26	0.263
541.71	0.265
542.16	0.265
542.62	0.261
543.07	0.262
543.52	0.259
543.98	0.261
544.43	0.259
544.88	0.257
545.34	0.260
545.79	0.260
546.24	0.259
546.69	0.256
547.15	0.257
547.60	0.258
548.05	0.259
548.51	0.256
548.96	0.257
549.41	0.259
549.86	0.257
550.32	0.258
550.77	0.257
551.22	0.256
551.68	0.253
552.13	0.254
552.58	0.251
553.03	0.252
553.49	0.253
553.94	0.251
554.39	0.252
554.84	0.250
555.30	0.253
555.75	0.250
556.20	0.252
556.65	0.251
557.11	0.251
557.56	0.249
558.01	0.250
558.46	0.251
558.92	0.247
559.37	0.248
559.82	0.247
560.27	0.249
560.72	0.247
561.18	0.244
561.63	0.243
562.08	0.245
562.53	0.245
562.99	0.245
563.44	0.245
563.89	0.241
564.34	0.243
564.79	0.243
565.25	0.242
565.70	0.243
566.15	0.243
566.60	0.239
567.05	0.239
567.50	0.239
567.96	0.241
568.41	0.241
568.86	0.239
569.31	0.238
569.76	0.238
570.21	0.238
570.67	0.238
571.12	0.239
571.57	0.238
572.02	0.236
572.47	0.237
572.92	0.235
573.37	0.234
573.83	0.234
574.28	0.235
574.73	0.234
575.18	0.232
575.63	0.236
576.08	0.230
576.53	0.233
576.98	0.232
577.44	0.227
577.89	0.232
578.34	0.232
578.79	0.230
579.24	0.230
579.69	0.229
580.14	0.227
580.59	0.228
581.04	0.228
581.49	0.229
581.95	0.227
582.40	0.228
582.85	0.226
583.30	0.226
583.75	0.225
584.20	0.227
584.65	0.226
585.10	0.224
585.55	0.226
586.00	0.224
586.45	0.224
586.90	0.225
587.35	0.225
587.80	0.224
588.25	0.223
588.71	0.224
589.16	0.223
589.61	0.223
590.06	0.221
590.51	0.224
590.96	0.222
591.41	0.220
591.86	0.222
592.31	0.222
592.76	0.219
593.21	0.220
593.66	0.221
594.11	0.221
594.56	0.218
595.01	0.222
595.46	0.220
595.91	0.220
596.36	0.220
596.81	0.220
597.26	0.217
597.71	0.219
598.16	0.218
598.61	0.217
599.06	0.218
599.51	0.219
599.96	0.220
600.41	0.219
600.86	0.219
601.31	0.216
601.76	0.218
602.21	0.215
602.65	0.216
603.10	0.216
603.55	0.215
604.00	0.215
604.45	0.215
604.90	0.215
605.35	0.213
605.80	0.214
606.25	0.216
606.70	0.213
607.15	0.213
607.60	0.214
608.05	0.211
608.50	0.212
608.95	0.210
609.39	0.214
609.84	0.213
610.29	0.211
610.74	0.210
611.19	0.210
611.64	0.210
612.09	0.209
612.54	0.208
612.99	0.211
613.44	0.208
613.88	0.212
614.33	0.211
614.78	0.207
615.23	0.207
615.68	0.208
616.13	0.207
616.58	0.206
617.03	0.206
617.47	0.207
617.92	0.206
618.37	0.204
618.82	0.207
619.27	0.205
619.72	0.204
620.17	0.203
620.61	0.204
621.06	0.204
621.51	0.206
621.96	0.203
622.41	0.204
622.86	0.203
623.30	0.204
623.75	0.204
624.20	0.204
624.65	0.201
625.10	0.202
625.54	0.203
625.99	0.201
626.44	0.201
626.89	0.201
627.34	0.202
627.78	0.201
628.23	0.201
628.68	0.201
629.13	0.199
629.58	0.200
630.02	0.200
630.47	0.199
630.92	0.200
631.37	0.198
631.81	0.199
632.26	0.199
632.71	0.198
633.16	0.197
633.61	0.198
634.05	0.195
634.50	0.196
634.95	0.197
635.40	0.198
635.84	0.198
636.29	0.195
636.74	0.197
637.18	0.197
637.63	0.198
638.08	0.195
638.53	0.196
638.97	0.196
639.42	0.197
639.87	0.195
640.32	0.196
640.76	0.196
641.21	0.196
641.66	0.196
642.10	0.195
642.55	0.193
643.00	0.192
643.44	0.194
643.89	0.193
644.34	0.194
644.79	0.194
645.23	0.195
645.68	0.192
646.13	0.194
646.57	0.194
647.02	0.192
647.47	0.196
647.91	0.194
648.36	0.192
648.81	0.193
649.25	0.191
649.70	0.191
650.15	0.192
650.59	0.191
651.04	0.191
651.48	0.192
651.93	0.189
652.38	0.189
652.82	0.191
653.27	0.191
653.72	0.192
654.16	0.191
654.61	0.191
655.06	0.189
655.50	0.190
655.95	0.187
656.39	0.183
656.84	0.186
657.29	0.193
657.73	0.189
658.18	0.188
658.62	0.188
659.07	0.188
659.52	0.189
659.96	0.187
660.41	0.188
660.85	0.188
661.30	0.188
661.74	0.188
662.19	0.187
662.64	0.185
663.08	0.185
663.53	0.186
663.97	0.182
664.42	0.185
664.86	0.187
665.31	0.185
665.75	0.184
666.20	0.187
666.65	0.185
667.09	0.184
667.54	0.183
667.98	0.181
668.43	0.182
668.87	0.181
669.32	0.180
669.76	0.182
670.21	0.181
670.65	0.178
671.10	0.180
671.54	0.180
671.99	0.181
672.43	0.178
672.88	0.179
673.32	0.178
673.77	0.178
674.21	0.177
674.66	0.175
675.10	0.177
675.55	0.175
675.99	0.177
676.44	0.175
676.88	0.175
677.33	0.177
677.77	0.174
678.22	0.175
678.66	0.174
679.11	0.172
679.55	0.174
679.99	0.172
680.44	0.174
680.88	0.172
681.33	0.171
681.77	0.169
682.22	0.172
682.66	0.171
683.11	0.169
683.55	0.170
683.99	0.169
684.44	0.167
684.88	0.169
685.33	0.169
685.77	0.166
686.21	0.168
686.66	0.168
687.10	0.168
687.55	0.165
687.99	0.168
688.44	0.168
688.88	0.165
689.32	0.166
689.77	0.165
690.21	0.164
690.65	0.166
691.10	0.164
691.54	0.162
691.99	0.162
692.43	0.162
692.87	0.161
693.32	0.162
693.76	0.162
694.20	0.164
694.65	0.161
695.09	0.162
695.53	0.161
695.98	0.161
696.42	0.163
696.86	0.160
697.31	0.157
697.75	0.160
698.19	0.161
698.64	0.159
699.08	0.160
699.52	0.158
699.97	0.157
700.41	0.160
700.85	0.159
701.30	0.158
701.74	0.160
702.18	0.158
702.63	0.160
703.07	0.159
703.51	0.159
703.96	0.157
704.40	0.158
704.84	0.159
705.28	0.158
705.73	0.159
706.17	0.158
706.61	0.156
707.06	0.156
707.50	0.156
707.94	0.156
708.38	0.154
708.83	0.158
709.27	0.155
709.71	0.154
710.15	0.157
710.60	0.154
711.04	0.154
711.48	0.157
711.92	0.157
712.37	0.155
712.81	0.155
713.25	0.154
713.69	0.154
714.13	0.157
714.58	0.156
715.02	0.155
715.46	0.154
715.90	0.153
716.35	0.152
716.79	0.156
717.23	0.155
717.67	0.154
718.11	0.158
718.56	0.155
719.00	0.157
719.44	0.153
719.88	0.153
720.32	0.153
720.76	0.151
721.21	0.153
721.65	0.154
722.09	0.153
722.53	0.153
722.97	0.152
723.41	0.152
723.86	0.154
724.30	0.153
724.74	0.154
725.18	0.153
725.62	0.151
726.06	0.153
726.50	0.151
726.95	0.151
727.39	0.153
727.83	0.153
728.27	0.151
728.71	0.152
729.15	0.153
729.59	0.150
730.03	0.150
730.48	0.151
730.92	0.150
731.36	0.152
731.80	0.152
732.24	0.153
732.68	0.151
733.12	0.150
733.56	0.153
734.00	0.153
734.44	0.152
734.89	0.152
735.33	0.152
735.77	0.154
736.21	0.152
736.65	0.147
737.09	0.153
737.53	0.152
737.97	0.153
738.41	0.151
738.85	0.153
739.29	0.154
739.73	0.151
740.17	0.151
740.61	0.150
741.05	0.152
741.49	0.153
741.93	0.153
742.37	0.150
742.81	0.151
743.26	0.151
743.70	0.150
744.14	0.151
744.58	0.151
745.02	0.151
745.46	0.149
745.90	0.153
746.34	0.151
746.78	0.151
747.22	0.151
747.66	0.152
748.10	0.149
748.54	0.149
748.98	0.149
749.42	0.149
749.86	0.151
750.29	0.148
750.73	0.147
751.17	0.148
751.61	0.146
752.05	0.149
752.49	0.147
752.93	0.147
753.37	0.146
753.81	0.147
754.25	0.146
754.69	0.144
755.13	0.145
755.57	0.145
756.01	0.146
756.45	0.148
756.89	0.146
757.33	0.147
757.77	0.147
758.21	0.146
758.64	0.145
759.08	0.143
759.52	0.146
759.96	0.146
760.40	0.144
760.84	0.143
761.28	0.145
761.72	0.147
762.16	0.146
762.60	0.144
763.03	0.142
763.47	0.141
763.91	0.145
764.35	0.141
764.79	0.142
765.23	0.141
765.67	0.141
766.11	0.141
766.54	0.138
766.98	0.141
767.42	0.142
767.86	0.139
768.30	0.143
768.74	0.144
769.17	0.143
769.61	0.142
770.05	0.143
770.49	0.142
770.93	0.144
771.37	0.142
771.80	0.141
772.24	0.138
772.68	0.139
773.12	0.141
773.56	0.139
774.00	0.139
774.43	0.139
774.87	0.139
775.31	0.138
775.75	0.138
776.19	0.140
776.62	0.140
777.06	0.141
777.50	0.139
777.94	0.137
778.37	0.138
778.81	0.139
779.25	0.140
779.69	0.142
780.13	0.138
780.56	0.137
781.00	0.141
781.44	0.140
781.88	0.140
782.31	0.135
782.75	0.138
783.19	0.142
783.63	0.136
784.06	0.137
784.50	0.141
784.94	0.138
785.37	0.140
785.81	0.139
786.25	0.140
786.69	0.138
787.12	0.135
787.56	0.136
788.00	0.138
788.43	0.139
788.87	0.139
789.31	0.136
789.75	0.133
790.18	0.135
790.62	0.135
791.06	0.135
791.49	0.137
791.93	0.136
792.37	0.137
792.80	0.133
793.24	0.134
793.68	0.135
794.11	0.135
794.55	0.136
794.99	0.138
795.42	0.131
795.86	0.138
796.30	0.137
796.73	0.135
797.17	0.133
797.61	0.131
798.04	0.134
798.48	0.136
798.91	0.135
799.35	0.133
799.79	0.141
800.22	0.137
800.66	0.134
801.10	0.134
801.53	0.136
801.97	0.136
802.40	0.138
802.84	0.135
803.28	0.134
803.71	0.131
804.15	0.131
804.58	0.132
805.02	0.134
805.46	0.133
805.89	0.131
806.33	0.132
806.76	0.130
807.20	0.133
807.63	0.131
808.07	0.137
808.51	0.131
808.94	0.129
809.38	0.133
809.81	0.132
810.25	0.131
810.68	0.133
811.12	0.130
811.55	0.131
811.99	0.129
812.42	0.135
812.86	0.131
813.29	0.129
813.73	0.133
814.17	0.132
814.60	0.131
815.04	0.130
815.47	0.131
815.91	0.132
816.34	0.128
816.78	0.128
817.21	0.134
817.65	0.135
818.08	0.131
818.52	0.133
818.95	0.132
819.39	0.130
819.82	0.128
820.25	0.130
820.69	0.131
821.12	0.132
821.56	0.132
821.99	0.129
822.43	0.128
822.86	0.131
823.30	0.132
823.73	0.129
824.17	0.128
824.60	0.127
825.04	0.134
825.47	0.131
825.90	0.131
826.34	0.129
826.77	0.131
827.21	0.133
827.64	0.131
828.08	0.130
828.51	0.128
828.94	0.127
829.38	0.127
829.81	0.136
830.25	0.132
830.68	0.133
831.11	0.131
831.55	0.136
831.98	0.132
832.42	0.131
832.85	0.137
833.28	0.134
833.72	0.136
834.15	0.137
834.58	0.135
835.02	0.139
835.45	0.134
835.88	0.139
836.32	0.138
836.75	0.133
837.19	0.135
837.62	0.132
838.05	0.136
838.49	0.138
838.92	0.138
839.35	0.135
839.79	0.131
840.22	0.133
840.65	0.132
841.09	0.136
841.52	0.135
841.95	0.136
842.39	0.138
842.82	0.130
843.25	0.131
843.68	0.135
844.12	0.136
844.55	0.132
844.98	0.130
845.42	0.137
845.85	0.132
846.28	0.132
846.71	0.137
847.15	0.140
847.58	0.135
848.01	0.139
848.45	0.135
848.88	0.138
849.31	0.133
849.74	0.131
850.18	0.135
850.61	0.135
851.04	0.135
851.47	0.138
851.91	0.143
852.34	0.137
852.77	0.138
853.20	0.136
853.64	0.133
854.07	0.134
854.50	0.135
854.93	0.140
855.36	0.138
855.80	0.134
856.23	0.132
856.66	0.136
857.09	0.131
857.52	0.132
857.96	0.131
858.39	0.135
858.82	0.130
859.25	0.137
859.68	0.137
860.12	0.130
860.55	0.131
860.98	0.135
861.41	0.133
861.84	0.133
862.27	0.132
862.71	0.139
863.14	0.135
863.57	0.131
864.00	0.129
864.43	0.143
864.86	0.134
865.30	0.141
865.73	0.138
866.16	0.136
866.59	0.137
867.02	0.134
867.45	0.132
867.88	0.137
868.31	0.137
868.75	0.136
869.18	0.141
869.61	0.137
870.04	0.132
870.47	0.141
870.90	0.137
871.33	0.134
871.76	0.135
872.19	0.138
872.62	0.131
873.06	0.133
873.49	0.137
873.92	0.141
874.35	0.137
874.78	0.140
875.21	0.133
875.64	0.129
876.07	0.138
876.50	0.138
876.93	0.144
877.36	0.138
877.79	0.139
878.22	0.132
878.65	0.139
879.08	0.135
879.51	0.138
879.94	0.138
880.37	0.138
880.80	0.141
881.23	0.137
881.67	0.142
882.10	0.139
882.53	0.134
882.96	0.144
883.39	0.140
883.82	0.138
884.25	0.135
884.68	0.138
885.11	0.136
885.54	0.137
885.97	0.138
886.39	0.137
886.82	0.140
887.25	0.138
887.68	0.138
888.11	0.139
888.54	0.134
888.97	0.143
889.40	0.139
889.83	0.137
890.26	0.136
890.69	0.141
891.12	0.138
891.55	0.138
891.98	0.138
892.41	0.136
892.84	0.137
893.27	0.138
893.70	0.137
894.13	0.137
894.56	0.141
894.98	0.142
895.41	0.139
895.84	0.140
896.27	0.140
896.70	0.139
897.13	0.144
897.56	0.139
897.99	0.137
898.42	0.132
898.85	0.141
899.27	0.141
899.70	0.139
900.13	0.140
900.56	0.140
900.99	0.145
901.42	0.142
901.85	0.140
902.28	0.139
902.70	0.139
903.13	0.143
903.56	0.144
903.99	0.140
904.42	0.139
904.85	0.143
905.27	0.135
905.70	0.141
906.13	0.142
906.56	0.140
906.99	0.142
907.42	0.141
907.84	0.142
908.27	0.142
908.70	0.141
909.13	0.142
909.56	0.138
909.98	0.140
910.41	0.141
910.84	0.140
911.27	0.143
911.70	0.137
912.12	0.136
912.55	0.140
912.98	0.141
913.41	0.138
913.84	0.139
914.26	0.139
914.69	0.137
915.12	0.138
915.55	0.136
915.97	0.143
916.40	0.140
916.83	0.136
917.26	0.140
917.68	0.138
918.11	0.141
918.54	0.139
918.97	0.140
919.39	0.140
919.82	0.137
920.25	0.140
920.67	0.139
921.10	0.143
921.53	0.143
921.96	0.144
922.38	0.141
922.81	0.142
923.24	0.145
923.66	0.140
924.09	0.145
924.52	0.143
924.94	0.148
925.37	0.148
925.80	0.146
926.22	0.147
926.65	0.145
927.08	0.148
927.50	0.145
927.93	0.148
928.36	0.147
928.78	0.149
929.21	0.149
929.64	0.149
930.06	0.155
930.49	0.153
930.92	0.155
931.34	0.152
931.77	0.157
932.20	0.157
932.62	0.154
933.05	0.154
933.47	0.159
933.90	0.155
934.33	0.159
934.75	0.162
935.18	0.163
935.61	0.162
936.03	0.163
936.46	0.164
936.88	0.163
937.31	0.168
937.73	0.171
938.16	0.162
938.59	0.173
939.01	0.176
939.44	0.175
939.86	0.179
940.29	0.181
940.71	0.180
941.14	0.182
941.57	0.178
941.99	0.181
942.42	0.183
942.84	0.186
943.27	0.193
943.69	0.203
944.12	0.198
944.54	0.202
944.97	0.203
945.39	0.196
945.82	0.199
946.24	0.205
946.67	0.209
947.09	0.205
947.52	0.200
947.94	0.208
948.37	0.216
948.79	0.211
949.22	0.217
949.64	0.215
950.07	0.221
950.49	0.222
950.92	0.221
951.34	0.225
951.77	0.230
952.19	0.227
952.62	0.241
953.04	0.238
953.47	0.240
953.89	0.243
954.32	0.248
954.74	0.247
955.17	0.255
955.59	0.259
956.01	0.261
956.44	0.254
956.86	0.266
957.29	0.266
957.71	0.271
958.14	0.266
958.56	0.269
958.98	0.276
959.41	0.275
959.83	0.273
960.26	0.278
960.68	0.285
961.10	0.279
961.53	0.280
961.95	0.280
962.38	0.285
962.80	0.285
963.22	0.291
963.65	0.292
964.07	0.290
964.50	0.300
964.92	0.289
965.34	0.290
965.77	0.285
966.19	0.291
966.61	0.289
967.04	0.299
967.46	0.292
967.88	0.306
968.31	0.292
968.73	0.286
969.15	0.294
969.58	0.296
970.00	0.294
970.42	0.295
970.85	0.291
971.27	0.294
971.69	0.297
972.12	0.300
972.54	0.295
972.96	0.297
973.39	0.299
973.81	0.306
974.23	0.298
974.65	0.295
975.08	0.299
975.50	0.297
975.92	0.304
976.35	0.296
976.77	0.297
977.19	0.302
977.61	0.299
978.04	0.299
978.46	0.301
978.88	0.296
979.30	0.304
979.73	0.298
980.15	0.305
980.57	0.304
980.99	0.295
981.42	0.300
981.84	0.305
982.26	0.297
982.68	0.296
983.11	0.300
983.53	0.302
983.95	0.300
984.37	0.300
984.79	0.300
985.22	0.304
985.64	0.296
986.06	0.295
986.48	0.299
986.90	0.290
987.33	0.289
987.75	0.293
988.17	0.287
988.59	0.288
989.01	0.287
989.43	0.290
989.86	0.291
990.28	0.288
990.70	0.285
991.12	0.287
991.54	0.287
991.96	0.282
992.39	0.285
992.81	0.282
993.23	0.280
993.65	0.278
994.07	0.283
994.49	0.286
994.91	0.282
995.34	0.272
995.76	0.278
996.18	0.277
996.60	0.277
997.02	0.277
997.44	0.275
997.86	0.276
998.28	0.271
998.70	0.278
999.12	0.271
999.55	0.271
999.97	0.266
1000.39	0.274
1000.81	0.269
1001.23	0.274
1001.65	0.272
1002.07	0.271
1002.49	0.270
1002.91	0.263
1003.33	0.273
1003.75	0.262
1004.17	0.263
1004.59	0.262
1005.01	0.271
1005.43	0.264
1005.85	0.258
1006.28	0.261
1006.70	0.263
1007.12	0.256
1007.54	0.262
1007.96	0.255
1008.38	0.252
1008.80	0.254
1009.22	0.258
1009.64	0.261
1010.06	0.250
1010.48	0.253
1010.90	0.255
1011.32	0.252
1011.74	0.250
1012.16	0.251
1012.58	0.247
1013.00	0.240
1013.42	0.244
1013.84	0.241
1014.26	0.248
1014.67	0.246
1015.09	0.245
1015.51	0.243
1015.93	0.232
1016.35	0.230
1016.77	0.242
1017.19	0.243
1017.61	0.230
1018.03	0.235
1018.45	0.236
1018.87	0.240
1019.29	0.239
1019.71	0.245
1020.13	0.236
1020.55	0.235
1020.97	0.225
1021.38	0.232
1021.80	0.228
1022.22	0.222
1022.64	0.226
1023.06	0.230
1023.48	0.226
1023.90	0.218
1024.32	0.218
1024.74	0.233
1025.15	0.209
1025.57	0.212
1025.99	0.222
1026.41	0.225
1026.83	0.211
1027.25	0.226
1027.67	0.217
1028.08	0.206
1028.50	0.211
1028.92	0.210
1029.34	0.218
1029.76	0.213
1030.18	0.209
1030.60	0.218
1031.01	0.215
1031.43	0.214
1031.85	0.212
1032.27	0.222
1032.69	0.214
1033.10	0.213
1033.52	0.210
1033.94	0.220
1034.36	0.199
1034.78	0.200
1035.19	0.205
1035.61	0.197
1036.03	0.202
1036.45	0.203
1036.87	0.215
1037.28	0.205
1037.70	0.201
1038.12	0.204
1038.54	0.189
1038.95	0.182
1039.37	0.182
1039.79	0.195
1040.21	0.191
1040.62	0.195
1041.04	0.187
1041.46	0.208
1041.88	0.203
1042.29	0.200
1042.71	0.202
1043.13	0.210
1043.55	0.199
1043.96	0.212
1044.38	0.208
1044.80	0.199
1045.21	0.178
1045.63	0.195
1046.05	0.195
1046.47	0.192
1046.88	0.181
1047.30	0.217
1047.72	0.184
1048.13	0.176
1048.55	0.198
1048.97	0.196
1049.38	0.190
1049.80	0.178
1050.22	0.212
1050.63	0.157
1051.05	0.185
1051.47	0.181
1051.88	0.209
1052.30	0.200
1052.72	0.172
1053.13	0.185
1053.55	0.207
1053.97	0.176
1054.38	0.184
1054.80	0.198
1055.21	0.202
1055.63	0.171
1056.05	0.171
1056.46	0.221
1056.88	0.199
1057.29	0.199
1057.71	0.215
1058.13	0.228
1058.54	0.215
1058.96	0.189
1059.37	0.184
1059.79	0.229
1060.21	0.199
1060.62	0.202
1061.04	0.210
1061.45	0.199
1061.87	0.167
1062.28	0.172
1062.70	0.230
1063.12	0.189
1063.53	0.168
1063.95	0.219
1064.36	0.237
1064.78	0.227
1065.19	0.197
1065.61	0.244
1066.02	0.253
1066.44	0.244
1066.85	0.235
1067.27	0.295
1067.68	0.224
1068.10	0.213
1068.51	0.273
1068.93	0.290
1069.35	0.293
1069.76	0.306
1070.17	0.344
1070.59	0.325
1071.00	0.269
1071.42	0.382
1071.83	0.416
1072.25	0.344
1072.66	0.397
1073.08	0.452
1073.49	0.487
1073.91	0.374
1074.32	0.402
1074.74	0.366
1075.15	0.464
1075.57	0.265
1075.98	0.598
1076.40	0.313
1076.81	0.476
1077.22	0.400
1077.64	0.515
1078.05	0.424
1078.47	0.397
1078.88	0.405
1079.30	0.545
1079.71	-0.000
1080.12	0.553
1080.54	-0.000
1080.95	0.921
1081.37	0.554
1081.78	0.586
1082.19	-0.000
1082.61	0.898
1083.02	1.449
1083.44	1.601
1083.85	0.665
1084.26	-0.000
1084.68	-0.000
1085.09	0.926
1085.50	-0.000
1085.92	-0.000
1086.33	-0.000
1086.74	1.558
1087.16	-0.000
1087.57	0.892
1087.98	-0.000
1088.40	-0.000
1088.81	-0.000
1089.22	-0.000
1089.64	-0.000
1090.05	-0.000
1090.46	-0.000
1090.88	-0.000
1091.29	-0.000
1091.70	-0.000
1092.12	-0.000
1092.53	-0.000
1092.94	-0.000
1093.36	-0.000
1093.77	-0.000
1094.18	-0.000
1094.59	-0.000
1095.01	-0.000
1095.42	-0.000
1095.83	-0.000
1096.25	-0.000
1096.66	-0.000
1097.07	-0.000
1097.48	-0.000
1097.90	-0.000
1098.31	-0.000
1098.72	-0.000
1099.13	-0.000
>>>>>End Processed Spectral Data<<<<<
