SpectraSuite Data File
++++++++++++++++++++++++++++++++++++
Date: Sun Apr 24 16:05:50 CEST 2016
User: spectrasuite
Dark Spectrum Present: Yes
Reference Spectrum Present: Yes
Number of Sampled Component Spectra: 1
Spectrometers: HR+C0708
Integration Time (usec): 1000 (HR+C0708)
Spectra Averaged: 10 (HR+C0708)
Boxcar Smoothing: 0 (HR+C0708)
Correct for Electrical Dark: No (HR+C0708)
Strobe/Lamp Enabled: No (HR+C0708)
Correct for Detector Non-linearity: No (HR+C0708)
Correct for Stray Light: No (HR+C0708)
Number of Pixels in Processed Spectrum: 2048
>>>>>Begin Processed Spectral Data<<<<<
188.76	-0.000
189.23	-0.000
189.70	-0.000
190.17	-0.000
190.64	-0.000
191.12	-0.000
191.59	-0.000
192.06	-0.000
192.53	-0.000
193.01	-0.000
193.48	-0.000
193.95	-0.000
194.42	-0.000
194.90	0.484
195.37	-0.000
195.84	-0.000
196.31	-0.000
196.78	-0.000
197.26	-0.000
197.73	-0.000
198.20	-0.000
198.67	-0.000
199.14	-0.000
199.62	-0.000
200.09	-0.000
200.56	-0.000
201.03	-0.000
201.50	0.896
201.97	-0.000
202.45	-0.000
202.92	1.524
203.39	1.658
203.86	0.973
204.33	-0.000
204.80	-0.000
205.28	-0.000
205.75	-0.000
206.22	-0.000
206.69	1.309
207.16	-0.000
207.63	-0.000
208.11	0.887
208.58	-0.000
209.05	-0.000
209.52	1.265
209.99	-0.000
210.46	-0.000
210.93	1.262
211.41	1.720
211.88	-0.000
212.35	-0.000
212.82	-0.000
213.29	1.397
213.76	1.068
214.23	-0.000
214.70	-0.000
215.18	-0.000
215.65	1.567
216.12	0.859
216.59	-0.000
217.06	1.356
217.53	1.049
218.00	1.998
218.47	1.088
218.94	-0.000
219.41	-0.000
219.89	-0.000
220.36	-0.000
220.83	-0.000
221.30	-0.000
221.77	-0.000
222.24	-0.000
222.71	-0.000
223.18	-0.000
223.65	1.350
224.12	-0.000
224.59	-0.000
225.06	1.801
225.54	-0.000
226.01	1.292
226.48	1.616
226.95	-0.000
227.42	2.951
227.89	2.974
228.36	1.692
228.83	2.920
229.30	1.547
229.77	1.954
230.24	1.910
230.71	-0.000
231.18	2.107
231.65	2.417
232.12	1.740
232.59	2.540
233.06	2.102
233.53	3.908
234.00	2.089
234.47	-0.000
234.94	-0.000
235.41	2.351
235.88	-0.000
236.35	-0.000
236.82	3.592
237.29	2.530
237.76	3.115
238.23	3.295
238.70	-0.000
239.17	2.203
239.64	-0.000
240.11	-0.000
240.58	2.788
241.05	3.995
241.52	2.931
241.99	-0.000
242.46	2.771
242.93	-0.000
243.40	2.797
243.87	3.486
244.34	2.364
244.81	2.836
245.28	-0.000
245.75	3.239
246.22	-0.000
246.69	-0.000
247.16	3.842
247.63	-0.000
248.10	2.768
248.57	3.585
249.04	-0.000
249.51	3.243
249.98	-0.000
250.45	4.014
250.92	3.065
251.39	3.301
251.85	-0.000
252.32	-0.000
252.79	-0.000
253.26	2.993
253.73	-0.000
254.20	-0.000
254.67	2.956
255.14	3.786
255.61	-0.000
256.08	-0.000
256.55	-0.000
257.02	2.841
257.49	3.843
257.95	3.210
258.42	3.380
258.89	2.990
259.36	3.331
259.83	3.202
260.30	3.105
260.77	-0.000
261.24	2.877
261.71	-0.000
262.17	4.961
262.64	2.854
263.11	2.999
263.58	3.775
264.05	3.095
264.52	2.910
264.99	2.826
265.46	2.801
265.92	2.961
266.39	2.883
266.86	3.107
267.33	2.976
267.80	2.579
268.27	3.135
268.74	2.810
269.20	2.934
269.67	2.845
270.14	2.547
270.61	2.567
271.08	2.679
271.55	2.567
272.01	2.584
272.48	2.612
272.95	2.497
273.42	2.513
273.89	2.552
274.36	2.544
274.82	2.419
275.29	2.489
275.76	2.480
276.23	2.456
276.70	2.547
277.16	2.400
277.63	2.331
278.10	2.328
278.57	2.338
279.04	2.302
279.50	2.357
279.97	2.402
280.44	2.242
280.91	2.255
281.38	2.273
281.84	2.305
282.31	2.270
282.78	2.330
283.25	2.245
283.72	2.276
284.18	2.259
284.65	2.230
285.12	2.152
285.59	2.200
286.05	2.218
286.52	2.241
286.99	2.158
287.46	2.147
287.92	2.182
288.39	2.096
288.86	2.151
289.33	2.096
289.79	2.131
290.26	2.115
290.73	2.104
291.20	2.057
291.66	2.078
292.13	2.055
292.60	2.028
293.07	2.072
293.53	2.021
294.00	2.007
294.47	2.014
294.93	2.017
295.40	2.014
295.87	2.001
296.34	2.027
296.80	1.984
297.27	1.971
297.74	1.942
298.20	1.943
298.67	1.945
299.14	1.946
299.60	1.946
300.07	1.914
300.54	1.935
301.01	1.892
301.47	1.883
301.94	1.909
302.41	1.893
302.87	1.882
303.34	1.916
303.81	1.831
304.27	1.845
304.74	1.837
305.21	1.828
305.67	1.845
306.14	1.810
306.61	1.858
307.07	1.795
307.54	1.794
308.01	1.799
308.47	1.780
308.94	1.805
309.40	1.777
309.87	1.767
310.34	1.754
310.80	1.762
311.27	1.732
311.74	1.745
312.20	1.747
312.67	1.723
313.13	1.716
313.60	1.750
314.07	1.733
314.53	1.704
315.00	1.673
315.47	1.716
315.93	1.690
316.40	1.676
316.86	1.669
317.33	1.643
317.80	1.636
318.26	1.663
318.73	1.665
319.19	1.654
319.66	1.629
320.13	1.624
320.59	1.616
321.06	1.628
321.52	1.625
321.99	1.617
322.45	1.594
322.92	1.572
323.39	1.571
323.85	1.589
324.32	1.600
324.78	1.587
325.25	1.575
325.71	1.563
326.18	1.536
326.64	1.568
327.11	1.528
327.58	1.536
328.04	1.525
328.51	1.539
328.97	1.528
329.44	1.504
329.90	1.499
330.37	1.521
330.83	1.489
331.30	1.498
331.76	1.475
332.23	1.468
332.69	1.472
333.16	1.435
333.62	1.441
334.09	1.439
334.56	1.409
335.02	1.418
335.49	1.403
335.95	1.376
336.42	1.372
336.88	1.374
337.35	1.358
337.81	1.360
338.28	1.321
338.74	1.315
339.20	1.310
339.67	1.298
340.13	1.287
340.60	1.271
341.06	1.255
341.53	1.240
341.99	1.234
342.46	1.208
342.92	1.203
343.39	1.185
343.85	1.170
344.32	1.156
344.78	1.143
345.25	1.132
345.71	1.113
346.17	1.100
346.64	1.085
347.10	1.066
347.57	1.036
348.03	1.023
348.50	1.007
348.96	0.992
349.43	0.977
349.89	0.960
350.35	0.945
350.82	0.937
351.28	0.919
351.75	0.901
352.21	0.885
352.67	0.863
353.14	0.859
353.60	0.848
354.07	0.829
354.53	0.821
355.00	0.805
355.46	0.795
355.92	0.776
356.39	0.767
356.85	0.761
357.31	0.753
357.78	0.745
358.24	0.731
358.71	0.722
359.17	0.707
359.63	0.709
360.10	0.702
360.56	0.696
361.03	0.689
361.49	0.680
361.95	0.677
362.42	0.668
362.88	0.668
363.34	0.657
363.81	0.654
364.27	0.653
364.73	0.648
365.20	0.646
365.66	0.641
366.12	0.635
366.59	0.632
367.05	0.632
367.51	0.628
367.98	0.624
368.44	0.618
368.90	0.623
369.37	0.612
369.83	0.613
370.29	0.612
370.76	0.609
371.22	0.608
371.68	0.605
372.15	0.596
372.61	0.595
373.07	0.594
373.54	0.596
374.00	0.593
374.46	0.589
374.92	0.586
375.39	0.584
375.85	0.585
376.31	0.583
376.78	0.580
377.24	0.582
377.70	0.578
378.16	0.574
378.63	0.576
379.09	0.575
379.55	0.571
380.01	0.570
380.48	0.570
380.94	0.567
381.40	0.561
381.87	0.556
382.33	0.559
382.79	0.557
383.25	0.561
383.72	0.558
384.18	0.554
384.64	0.552
385.10	0.549
385.56	0.552
386.03	0.547
386.49	0.546
386.95	0.546
387.41	0.542
387.88	0.541
388.34	0.537
388.80	0.538
389.26	0.537
389.72	0.532
390.19	0.532
390.65	0.531
391.11	0.528
391.57	0.530
392.04	0.527
392.50	0.524
392.96	0.524
393.42	0.519
393.88	0.524
394.34	0.519
394.81	0.513
395.27	0.517
395.73	0.516
396.19	0.510
396.65	0.509
397.12	0.510
397.58	0.507
398.04	0.509
398.50	0.507
398.96	0.506
399.42	0.507
399.89	0.504
400.35	0.503
400.81	0.500
401.27	0.500
401.73	0.496
402.19	0.494
402.65	0.497
403.12	0.492
403.58	0.488
404.04	0.489
404.50	0.488
404.96	0.484
405.42	0.485
405.88	0.483
406.34	0.482
406.81	0.480
407.27	0.478
407.73	0.477
408.19	0.477
408.65	0.475
409.11	0.473
409.57	0.477
410.03	0.472
410.49	0.473
410.96	0.469
411.42	0.472
411.88	0.465
412.34	0.467
412.80	0.467
413.26	0.463
413.72	0.461
414.18	0.461
414.64	0.461
415.10	0.464
415.56	0.459
416.02	0.459
416.48	0.455
416.95	0.451
417.41	0.453
417.87	0.449
418.33	0.455
418.79	0.450
419.25	0.447
419.71	0.445
420.17	0.447
420.63	0.446
421.09	0.445
421.55	0.442
422.01	0.442
422.47	0.442
422.93	0.442
423.39	0.441
423.85	0.438
424.31	0.437
424.77	0.435
425.23	0.437
425.69	0.439
426.15	0.435
426.61	0.428
427.07	0.427
427.53	0.428
427.99	0.422
428.45	0.430
428.91	0.428
429.37	0.426
429.83	0.423
430.29	0.424
430.75	0.427
431.21	0.425
431.67	0.424
432.13	0.421
432.59	0.416
433.05	0.417
433.51	0.414
433.97	0.419
434.43	0.416
434.89	0.418
435.35	0.412
435.81	0.413
436.27	0.413
436.73	0.413
437.19	0.406
437.65	0.407
438.11	0.410
438.57	0.408
439.03	0.407
439.48	0.403
439.94	0.403
440.40	0.401
440.86	0.402
441.32	0.400
441.78	0.403
442.24	0.398
442.70	0.397
443.16	0.398
443.62	0.391
444.08	0.397
444.54	0.392
444.99	0.392
445.45	0.392
445.91	0.392
446.37	0.393
446.83	0.390
447.29	0.389
447.75	0.391
448.21	0.392
448.67	0.387
449.12	0.388
449.58	0.384
450.04	0.382
450.50	0.385
450.96	0.381
451.42	0.380
451.88	0.377
452.34	0.379
452.79	0.376
453.25	0.380
453.71	0.376
454.17	0.378
454.63	0.379
455.09	0.375
455.55	0.374
456.00	0.374
456.46	0.370
456.92	0.369
457.38	0.370
457.84	0.369
458.30	0.366
458.75	0.368
459.21	0.364
459.67	0.368
460.13	0.364
460.59	0.366
461.04	0.363
461.50	0.363
461.96	0.362
462.42	0.363
462.88	0.357
463.33	0.357
463.79	0.358
464.25	0.357
464.71	0.358
465.17	0.356
465.62	0.355
466.08	0.358
466.54	0.357
467.00	0.356
467.46	0.355
467.91	0.353
468.37	0.353
468.83	0.353
469.29	0.351
469.74	0.353
470.20	0.346
470.66	0.348
471.12	0.346
471.57	0.347
472.03	0.347
472.49	0.344
472.95	0.349
473.40	0.345
473.86	0.342
474.32	0.338
474.78	0.342
475.23	0.341
475.69	0.342
476.15	0.342
476.60	0.342
477.06	0.339
477.52	0.335
477.98	0.335
478.43	0.336
478.89	0.334
479.35	0.335
479.80	0.336
480.26	0.335
480.72	0.331
481.18	0.333
481.63	0.332
482.09	0.331
482.55	0.332
483.00	0.331
483.46	0.326
483.92	0.328
484.37	0.328
484.83	0.326
485.29	0.324
485.74	0.325
486.20	0.326
486.66	0.325
487.11	0.325
487.57	0.322
488.03	0.322
488.48	0.320
488.94	0.319
489.40	0.321
489.85	0.320
490.31	0.320
490.77	0.319
491.22	0.319
491.68	0.318
492.13	0.315
492.59	0.316
493.05	0.315
493.50	0.317
493.96	0.315
494.42	0.314
494.87	0.310
495.33	0.311
495.78	0.314
496.24	0.314
496.70	0.310
497.15	0.311
497.61	0.310
498.06	0.309
498.52	0.308
498.98	0.306
499.43	0.309
499.89	0.310
500.34	0.306
500.80	0.307
501.25	0.305
501.71	0.303
502.17	0.303
502.62	0.304
503.08	0.302
503.53	0.299
503.99	0.301
504.44	0.302
504.90	0.299
505.36	0.299
505.81	0.300
506.27	0.299
506.72	0.298
507.18	0.297
507.63	0.297
508.09	0.299
508.54	0.297
509.00	0.294
509.45	0.296
509.91	0.295
510.36	0.296
510.82	0.295
511.27	0.292
511.73	0.294
512.19	0.294
512.64	0.292
513.10	0.290
513.55	0.290
514.01	0.288
514.46	0.290
514.92	0.290
515.37	0.288
515.83	0.290
516.28	0.288
516.73	0.287
517.19	0.287
517.64	0.284
518.10	0.286
518.55	0.284
519.01	0.283
519.46	0.283
519.92	0.285
520.37	0.280
520.83	0.281
521.28	0.282
521.74	0.281
522.19	0.280
522.65	0.278
523.10	0.280
523.55	0.277
524.01	0.281
524.46	0.279
524.92	0.273
525.37	0.278
525.83	0.276
526.28	0.275
526.73	0.276
527.19	0.278
527.64	0.276
528.10	0.274
528.55	0.272
529.01	0.274
529.46	0.273
529.91	0.273
530.37	0.271
530.82	0.270
531.28	0.269
531.73	0.268
532.18	0.268
532.64	0.270
533.09	0.266
533.54	0.267
534.00	0.267
534.45	0.269
534.91	0.268
535.36	0.269
535.81	0.269
536.27	0.266
536.72	0.267
537.17	0.265
537.63	0.265
538.08	0.264
538.54	0.265
538.99	0.261
539.44	0.264
539.90	0.263
540.35	0.260
540.80	0.263
541.26	0.262
541.71	0.260
542.16	0.263
542.62	0.260
543.07	0.260
543.52	0.261
543.98	0.261
544.43	0.259
544.88	0.258
545.34	0.257
545.79	0.259
546.24	0.257
546.69	0.258
547.15	0.256
547.60	0.255
548.05	0.258
548.51	0.253
548.96	0.254
549.41	0.255
549.86	0.253
550.32	0.255
550.77	0.259
551.22	0.254
551.68	0.252
552.13	0.252
552.58	0.251
553.03	0.252
553.49	0.251
553.94	0.251
554.39	0.250
554.84	0.252
555.30	0.250
555.75	0.250
556.20	0.250
556.65	0.250
557.11	0.250
557.56	0.247
558.01	0.250
558.46	0.248
558.92	0.246
559.37	0.246
559.82	0.248
560.27	0.246
560.72	0.244
561.18	0.243
561.63	0.244
562.08	0.242
562.53	0.244
562.99	0.245
563.44	0.245
563.89	0.242
564.34	0.242
564.79	0.243
565.25	0.243
565.70	0.242
566.15	0.240
566.60	0.241
567.05	0.240
567.50	0.240
567.96	0.241
568.41	0.241
568.86	0.240
569.31	0.238
569.76	0.239
570.21	0.237
570.67	0.238
571.12	0.238
571.57	0.237
572.02	0.235
572.47	0.235
572.92	0.235
573.37	0.235
573.83	0.231
574.28	0.235
574.73	0.234
575.18	0.236
575.63	0.235
576.08	0.231
576.53	0.232
576.98	0.234
577.44	0.231
577.89	0.234
578.34	0.230
578.79	0.231
579.24	0.231
579.69	0.231
580.14	0.229
580.59	0.227
581.04	0.228
581.49	0.230
581.95	0.228
582.40	0.230
582.85	0.229
583.30	0.230
583.75	0.228
584.20	0.227
584.65	0.228
585.10	0.227
585.55	0.227
586.00	0.227
586.45	0.226
586.90	0.226
587.35	0.225
587.80	0.227
588.25	0.227
588.71	0.228
589.16	0.225
589.61	0.225
590.06	0.224
590.51	0.226
590.96	0.224
591.41	0.223
591.86	0.224
592.31	0.226
592.76	0.224
593.21	0.224
593.66	0.227
594.11	0.223
594.56	0.222
595.01	0.222
595.46	0.223
595.91	0.224
596.36	0.222
596.81	0.223
597.26	0.222
597.71	0.222
598.16	0.222
598.61	0.221
599.06	0.223
599.51	0.224
599.96	0.223
600.41	0.221
600.86	0.221
601.31	0.221
601.76	0.221
602.21	0.222
602.65	0.223
603.10	0.222
603.55	0.220
604.00	0.221
604.45	0.220
604.90	0.219
605.35	0.220
605.80	0.219
606.25	0.220
606.70	0.218
607.15	0.217
607.60	0.217
608.05	0.216
608.50	0.218
608.95	0.218
609.39	0.219
609.84	0.218
610.29	0.218
610.74	0.217
611.19	0.216
611.64	0.217
612.09	0.216
612.54	0.216
612.99	0.215
613.44	0.214
613.88	0.215
614.33	0.214
614.78	0.213
615.23	0.215
615.68	0.214
616.13	0.215
616.58	0.213
617.03	0.214
617.47	0.212
617.92	0.213
618.37	0.212
618.82	0.212
619.27	0.213
619.72	0.213
620.17	0.210
620.61	0.210
621.06	0.213
621.51	0.211
621.96	0.210
622.41	0.212
622.86	0.210
623.30	0.210
623.75	0.210
624.20	0.208
624.65	0.208
625.10	0.209
625.54	0.209
625.99	0.207
626.44	0.210
626.89	0.210
627.34	0.208
627.78	0.209
628.23	0.207
628.68	0.207
629.13	0.208
629.58	0.208
630.02	0.208
630.47	0.207
630.92	0.207
631.37	0.208
631.81	0.207
632.26	0.206
632.71	0.205
633.16	0.206
633.61	0.208
634.05	0.203
634.50	0.205
634.95	0.206
635.40	0.206
635.84	0.206
636.29	0.207
636.74	0.206
637.18	0.205
637.63	0.206
638.08	0.205
638.53	0.206
638.97	0.203
639.42	0.206
639.87	0.205
640.32	0.203
640.76	0.206
641.21	0.205
641.66	0.206
642.10	0.205
642.55	0.202
643.00	0.205
643.44	0.207
643.89	0.205
644.34	0.204
644.79	0.205
645.23	0.204
645.68	0.204
646.13	0.204
646.57	0.205
647.02	0.204
647.47	0.205
647.91	0.206
648.36	0.205
648.81	0.204
649.25	0.203
649.70	0.203
650.15	0.203
650.59	0.205
651.04	0.202
651.48	0.206
651.93	0.203
652.38	0.202
652.82	0.203
653.27	0.204
653.72	0.202
654.16	0.203
654.61	0.204
655.06	0.203
655.50	0.201
655.95	0.200
656.39	0.196
656.84	0.198
657.29	0.204
657.73	0.203
658.18	0.202
658.62	0.202
659.07	0.202
659.52	0.203
659.96	0.202
660.41	0.203
660.85	0.201
661.30	0.202
661.74	0.200
662.19	0.200
662.64	0.200
663.08	0.199
663.53	0.201
663.97	0.200
664.42	0.199
664.86	0.201
665.31	0.199
665.75	0.197
666.20	0.199
666.65	0.200
667.09	0.198
667.54	0.197
667.98	0.195
668.43	0.196
668.87	0.195
669.32	0.195
669.76	0.195
670.21	0.197
670.65	0.192
671.10	0.194
671.54	0.193
671.99	0.190
672.43	0.191
672.88	0.192
673.32	0.191
673.77	0.189
674.21	0.189
674.66	0.187
675.10	0.187
675.55	0.187
675.99	0.188
676.44	0.187
676.88	0.186
677.33	0.186
677.77	0.185
678.22	0.183
678.66	0.183
679.11	0.182
679.55	0.182
679.99	0.182
680.44	0.180
680.88	0.179
681.33	0.177
681.77	0.176
682.22	0.177
682.66	0.177
683.11	0.176
683.55	0.174
683.99	0.175
684.44	0.172
684.88	0.172
685.33	0.172
685.77	0.172
686.21	0.171
686.66	0.171
687.10	0.168
687.55	0.169
687.99	0.169
688.44	0.169
688.88	0.166
689.32	0.169
689.77	0.166
690.21	0.164
690.65	0.167
691.10	0.167
691.54	0.164
691.99	0.164
692.43	0.163
692.87	0.163
693.32	0.165
693.76	0.165
694.20	0.165
694.65	0.163
695.09	0.164
695.53	0.161
695.98	0.163
696.42	0.162
696.86	0.161
697.31	0.159
697.75	0.160
698.19	0.158
698.64	0.160
699.08	0.159
699.52	0.158
699.97	0.159
700.41	0.160
700.85	0.159
701.30	0.156
701.74	0.156
702.18	0.158
702.63	0.158
703.07	0.159
703.51	0.159
703.96	0.157
704.40	0.158
704.84	0.158
705.28	0.156
705.73	0.157
706.17	0.157
706.61	0.155
707.06	0.154
707.50	0.155
707.94	0.155
708.38	0.154
708.83	0.155
709.27	0.155
709.71	0.154
710.15	0.155
710.60	0.155
711.04	0.153
711.48	0.155
711.92	0.154
712.37	0.153
712.81	0.157
713.25	0.152
713.69	0.153
714.13	0.155
714.58	0.154
715.02	0.151
715.46	0.153
715.90	0.153
716.35	0.150
716.79	0.153
717.23	0.154
717.67	0.151
718.11	0.152
718.56	0.151
719.00	0.155
719.44	0.154
719.88	0.151
720.32	0.151
720.76	0.154
721.21	0.151
721.65	0.150
722.09	0.151
722.53	0.151
722.97	0.152
723.41	0.150
723.86	0.151
724.30	0.152
724.74	0.152
725.18	0.152
725.62	0.149
726.06	0.151
726.50	0.149
726.95	0.152
727.39	0.151
727.83	0.149
728.27	0.152
728.71	0.150
729.15	0.153
729.59	0.151
730.03	0.149
730.48	0.151
730.92	0.149
731.36	0.153
731.80	0.149
732.24	0.151
732.68	0.150
733.12	0.151
733.56	0.150
734.00	0.147
734.44	0.150
734.89	0.150
735.33	0.150
735.77	0.151
736.21	0.149
736.65	0.148
737.09	0.152
737.53	0.151
737.97	0.153
738.41	0.150
738.85	0.154
739.29	0.153
739.73	0.150
740.17	0.149
740.61	0.149
741.05	0.150
741.49	0.148
741.93	0.152
742.37	0.149
742.81	0.149
743.26	0.149
743.70	0.151
744.14	0.150
744.58	0.150
745.02	0.148
745.46	0.151
745.90	0.149
746.34	0.151
746.78	0.148
747.22	0.149
747.66	0.149
748.10	0.150
748.54	0.146
748.98	0.147
749.42	0.148
749.86	0.148
750.29	0.146
750.73	0.145
751.17	0.146
751.61	0.144
752.05	0.148
752.49	0.144
752.93	0.145
753.37	0.146
753.81	0.145
754.25	0.145
754.69	0.143
755.13	0.143
755.57	0.146
756.01	0.144
756.45	0.144
756.89	0.144
757.33	0.146
757.77	0.143
758.21	0.144
758.64	0.143
759.08	0.143
759.52	0.143
759.96	0.147
760.40	0.141
760.84	0.145
761.28	0.144
761.72	0.145
762.16	0.145
762.60	0.144
763.03	0.142
763.47	0.141
763.91	0.142
764.35	0.140
764.79	0.140
765.23	0.140
765.67	0.141
766.11	0.140
766.54	0.140
766.98	0.140
767.42	0.140
767.86	0.137
768.30	0.142
768.74	0.142
769.17	0.143
769.61	0.142
770.05	0.140
770.49	0.140
770.93	0.143
771.37	0.136
771.80	0.141
772.24	0.141
772.68	0.138
773.12	0.139
773.56	0.140
774.00	0.137
774.43	0.140
774.87	0.139
775.31	0.138
775.75	0.138
776.19	0.140
776.62	0.139
777.06	0.137
777.50	0.138
777.94	0.138
778.37	0.136
778.81	0.139
779.25	0.140
779.69	0.138
780.13	0.137
780.56	0.137
781.00	0.138
781.44	0.137
781.88	0.138
782.31	0.137
782.75	0.135
783.19	0.140
783.63	0.135
784.06	0.135
784.50	0.139
784.94	0.137
785.37	0.139
785.81	0.139
786.25	0.138
786.69	0.134
787.12	0.135
787.56	0.133
788.00	0.140
788.43	0.137
788.87	0.136
789.31	0.135
789.75	0.138
790.18	0.135
790.62	0.133
791.06	0.136
791.49	0.136
791.93	0.131
792.37	0.136
792.80	0.132
793.24	0.133
793.68	0.137
794.11	0.135
794.55	0.136
794.99	0.137
795.42	0.134
795.86	0.136
796.30	0.136
796.73	0.134
797.17	0.133
797.61	0.130
798.04	0.133
798.48	0.130
798.91	0.135
799.35	0.131
799.79	0.136
800.22	0.133
800.66	0.129
801.10	0.135
801.53	0.134
801.97	0.139
802.40	0.135
802.84	0.134
803.28	0.130
803.71	0.132
804.15	0.132
804.58	0.131
805.02	0.134
805.46	0.129
805.89	0.131
806.33	0.130
806.76	0.132
807.20	0.131
807.63	0.131
808.07	0.134
808.51	0.127
808.94	0.129
809.38	0.130
809.81	0.129
810.25	0.132
810.68	0.132
811.12	0.132
811.55	0.134
811.99	0.130
812.42	0.135
812.86	0.130
813.29	0.131
813.73	0.131
814.17	0.127
814.60	0.131
815.04	0.131
815.47	0.129
815.91	0.128
816.34	0.130
816.78	0.131
817.21	0.134
817.65	0.130
818.08	0.126
818.52	0.132
818.95	0.130
819.39	0.129
819.82	0.129
820.25	0.130
820.69	0.127
821.12	0.131
821.56	0.130
821.99	0.130
822.43	0.128
822.86	0.130
823.30	0.135
823.73	0.126
824.17	0.127
824.60	0.128
825.04	0.130
825.47	0.126
825.90	0.127
826.34	0.130
826.77	0.129
827.21	0.131
827.64	0.130
828.08	0.130
828.51	0.128
828.94	0.133
829.38	0.132
829.81	0.132
830.25	0.132
830.68	0.137
831.11	0.134
831.55	0.128
831.98	0.130
832.42	0.129
832.85	0.133
833.28	0.131
833.72	0.137
834.15	0.131
834.58	0.132
835.02	0.129
835.45	0.136
835.88	0.133
836.32	0.136
836.75	0.136
837.19	0.139
837.62	0.137
838.05	0.132
838.49	0.134
838.92	0.136
839.35	0.135
839.79	0.134
840.22	0.133
840.65	0.131
841.09	0.136
841.52	0.134
841.95	0.132
842.39	0.135
842.82	0.133
843.25	0.133
843.68	0.134
844.12	0.135
844.55	0.135
844.98	0.131
845.42	0.131
845.85	0.133
846.28	0.130
846.71	0.133
847.15	0.135
847.58	0.136
848.01	0.135
848.45	0.137
848.88	0.136
849.31	0.131
849.74	0.136
850.18	0.134
850.61	0.137
851.04	0.138
851.47	0.133
851.91	0.135
852.34	0.133
852.77	0.134
853.20	0.131
853.64	0.129
854.07	0.133
854.50	0.129
854.93	0.133
855.36	0.137
855.80	0.135
856.23	0.133
856.66	0.137
857.09	0.132
857.52	0.132
857.96	0.130
858.39	0.136
858.82	0.127
859.25	0.134
859.68	0.137
860.12	0.131
860.55	0.131
860.98	0.134
861.41	0.129
861.84	0.136
862.27	0.129
862.71	0.135
863.14	0.133
863.57	0.130
864.00	0.133
864.43	0.135
864.86	0.132
865.30	0.140
865.73	0.138
866.16	0.136
866.59	0.138
867.02	0.135
867.45	0.136
867.88	0.134
868.31	0.133
868.75	0.135
869.18	0.136
869.61	0.138
870.04	0.137
870.47	0.135
870.90	0.136
871.33	0.136
871.76	0.135
872.19	0.143
872.62	0.137
873.06	0.129
873.49	0.140
873.92	0.128
874.35	0.132
874.78	0.133
875.21	0.133
875.64	0.131
876.07	0.139
876.50	0.136
876.93	0.142
877.36	0.136
877.79	0.135
878.22	0.138
878.65	0.138
879.08	0.136
879.51	0.139
879.94	0.136
880.37	0.140
880.80	0.144
881.23	0.132
881.67	0.136
882.10	0.136
882.53	0.135
882.96	0.136
883.39	0.134
883.82	0.134
884.25	0.133
884.68	0.137
885.11	0.139
885.54	0.137
885.97	0.138
886.39	0.135
886.82	0.137
887.25	0.142
887.68	0.137
888.11	0.134
888.54	0.137
888.97	0.134
889.40	0.137
889.83	0.136
890.26	0.135
890.69	0.136
891.12	0.142
891.55	0.139
891.98	0.137
892.41	0.138
892.84	0.138
893.27	0.138
893.70	0.144
894.13	0.138
894.56	0.139
894.98	0.142
895.41	0.142
895.84	0.139
896.27	0.141
896.70	0.140
897.13	0.141
897.56	0.139
897.99	0.140
898.42	0.135
898.85	0.142
899.27	0.137
899.70	0.138
900.13	0.139
900.56	0.141
900.99	0.141
901.42	0.140
901.85	0.138
902.28	0.140
902.70	0.139
903.13	0.139
903.56	0.140
903.99	0.137
904.42	0.142
904.85	0.142
905.27	0.137
905.70	0.139
906.13	0.142
906.56	0.136
906.99	0.139
907.42	0.140
907.84	0.139
908.27	0.140
908.70	0.143
909.13	0.142
909.56	0.139
909.98	0.140
910.41	0.138
910.84	0.141
911.27	0.143
911.70	0.137
912.12	0.137
912.55	0.140
912.98	0.138
913.41	0.140
913.84	0.139
914.26	0.139
914.69	0.139
915.12	0.141
915.55	0.139
915.97	0.136
916.40	0.141
916.83	0.136
917.26	0.140
917.68	0.138
918.11	0.138
918.54	0.136
918.97	0.139
919.39	0.137
919.82	0.137
920.25	0.140
920.67	0.137
921.10	0.145
921.53	0.143
921.96	0.142
922.38	0.141
922.81	0.139
923.24	0.148
923.66	0.139
924.09	0.141
924.52	0.143
924.94	0.144
925.37	0.149
925.80	0.148
926.22	0.142
926.65	0.148
927.08	0.145
927.50	0.141
927.93	0.148
928.36	0.145
928.78	0.148
929.21	0.147
929.64	0.149
930.06	0.152
930.49	0.152
930.92	0.154
931.34	0.155
931.77	0.154
932.20	0.153
932.62	0.156
933.05	0.153
933.47	0.159
933.90	0.158
934.33	0.153
934.75	0.162
935.18	0.159
935.61	0.162
936.03	0.162
936.46	0.166
936.88	0.169
937.31	0.167
937.73	0.168
938.16	0.165
938.59	0.171
939.01	0.172
939.44	0.175
939.86	0.175
940.29	0.183
940.71	0.177
941.14	0.181
941.57	0.175
941.99	0.178
942.42	0.193
942.84	0.186
943.27	0.199
943.69	0.188
944.12	0.194
944.54	0.202
944.97	0.201
945.39	0.198
945.82	0.200
946.24	0.209
946.67	0.206
947.09	0.210
947.52	0.206
947.94	0.217
948.37	0.205
948.79	0.211
949.22	0.219
949.64	0.212
950.07	0.220
950.49	0.223
950.92	0.225
951.34	0.222
951.77	0.226
952.19	0.227
952.62	0.244
953.04	0.238
953.47	0.245
953.89	0.243
954.32	0.254
954.74	0.248
955.17	0.244
955.59	0.252
956.01	0.250
956.44	0.262
956.86	0.259
957.29	0.266
957.71	0.271
958.14	0.270
958.56	0.272
958.98	0.270
959.41	0.278
959.83	0.272
960.26	0.272
960.68	0.283
961.10	0.278
961.53	0.284
961.95	0.285
962.38	0.282
962.80	0.280
963.22	0.291
963.65	0.286
964.07	0.283
964.50	0.292
964.92	0.290
965.34	0.285
965.77	0.286
966.19	0.295
966.61	0.301
967.04	0.294
967.46	0.293
967.88	0.301
968.31	0.294
968.73	0.293
969.15	0.289
969.58	0.292
970.00	0.298
970.42	0.301
970.85	0.292
971.27	0.294
971.69	0.292
972.12	0.295
972.54	0.298
972.96	0.297
973.39	0.298
973.81	0.300
974.23	0.299
974.65	0.298
975.08	0.295
975.50	0.305
975.92	0.302
976.35	0.299
976.77	0.298
977.19	0.294
977.61	0.290
978.04	0.298
978.46	0.303
978.88	0.302
979.30	0.298
979.73	0.294
980.15	0.303
980.57	0.296
980.99	0.301
981.42	0.295
981.84	0.305
982.26	0.298
982.68	0.300
983.11	0.297
983.53	0.289
983.95	0.298
984.37	0.289
984.79	0.300
985.22	0.300
985.64	0.293
986.06	0.294
986.48	0.294
986.90	0.294
987.33	0.292
987.75	0.287
988.17	0.282
988.59	0.284
989.01	0.289
989.43	0.285
989.86	0.291
990.28	0.292
990.70	0.285
991.12	0.290
991.54	0.290
991.96	0.286
992.39	0.289
992.81	0.280
993.23	0.280
993.65	0.282
994.07	0.286
994.49	0.283
994.91	0.282
995.34	0.274
995.76	0.279
996.18	0.274
996.60	0.278
997.02	0.277
997.44	0.269
997.86	0.277
998.28	0.271
998.70	0.280
999.12	0.271
999.55	0.271
999.97	0.277
1000.39	0.277
1000.81	0.276
1001.23	0.270
1001.65	0.272
1002.07	0.271
1002.49	0.266
1002.91	0.266
1003.33	0.264
1003.75	0.264
1004.17	0.266
1004.59	0.266
1005.01	0.264
1005.43	0.261
1005.85	0.259
1006.28	0.259
1006.70	0.254
1007.12	0.256
1007.54	0.257
1007.96	0.261
1008.38	0.256
1008.80	0.256
1009.22	0.247
1009.64	0.255
1010.06	0.255
1010.48	0.255
1010.90	0.254
1011.32	0.246
1011.74	0.249
1012.16	0.251
1012.58	0.246
1013.00	0.243
1013.42	0.240
1013.84	0.244
1014.26	0.245
1014.67	0.247
1015.09	0.236
1015.51	0.239
1015.93	0.239
1016.35	0.241
1016.77	0.241
1017.19	0.230
1017.61	0.232
1018.03	0.244
1018.45	0.241
1018.87	0.239
1019.29	0.238
1019.71	0.230
1020.13	0.240
1020.55	0.226
1020.97	0.225
1021.38	0.229
1021.80	0.229
1022.22	0.224
1022.64	0.227
1023.06	0.228
1023.48	0.222
1023.90	0.217
1024.32	0.207
1024.74	0.224
1025.15	0.208
1025.57	0.215
1025.99	0.227
1026.41	0.219
1026.83	0.217
1027.25	0.217
1027.67	0.211
1028.08	0.207
1028.50	0.225
1028.92	0.216
1029.34	0.217
1029.76	0.230
1030.18	0.217
1030.60	0.220
1031.01	0.215
1031.43	0.217
1031.85	0.216
1032.27	0.209
1032.69	0.204
1033.10	0.211
1033.52	0.209
1033.94	0.193
1034.36	0.189
1034.78	0.216
1035.19	0.218
1035.61	0.204
1036.03	0.203
1036.45	0.208
1036.87	0.199
1037.28	0.210
1037.70	0.198
1038.12	0.201
1038.54	0.194
1038.95	0.192
1039.37	0.191
1039.79	0.197
1040.21	0.205
1040.62	0.194
1041.04	0.194
1041.46	0.184
1041.88	0.186
1042.29	0.189
1042.71	0.222
1043.13	0.203
1043.55	0.194
1043.96	0.192
1044.38	0.204
1044.80	0.194
1045.21	0.179
1045.63	0.190
1046.05	0.188
1046.47	0.196
1046.88	0.170
1047.30	0.202
1047.72	0.189
1048.13	0.173
1048.55	0.199
1048.97	0.177
1049.38	0.193
1049.80	0.169
1050.22	0.216
1050.63	0.167
1051.05	0.185
1051.47	0.190
1051.88	0.165
1052.30	0.203
1052.72	0.187
1053.13	0.200
1053.55	0.216
1053.97	0.183
1054.38	0.200
1054.80	0.213
1055.21	0.193
1055.63	0.188
1056.05	0.184
1056.46	0.209
1056.88	0.200
1057.29	0.213
1057.71	0.214
1058.13	0.198
1058.54	0.238
1058.96	0.194
1059.37	0.214
1059.79	0.223
1060.21	0.216
1060.62	0.210
1061.04	0.157
1061.45	0.177
1061.87	0.178
1062.28	0.218
1062.70	0.191
1063.12	0.200
1063.53	0.164
1063.95	0.246
1064.36	0.249
1064.78	0.192
1065.19	0.304
1065.61	0.277
1066.02	0.225
1066.44	0.252
1066.85	0.232
1067.27	0.299
1067.68	0.219
1068.10	0.249
1068.51	0.211
1068.93	0.259
1069.35	0.312
1069.76	0.292
1070.17	0.241
1070.59	0.265
1071.00	0.292
1071.42	0.259
1071.83	0.436
1072.25	0.348
1072.66	0.316
1073.08	0.440
1073.49	0.377
1073.91	0.338
1074.32	0.540
1074.74	0.304
1075.15	0.411
1075.57	0.279
1075.98	0.413
1076.40	0.366
1076.81	0.470
1077.22	0.403
1077.64	0.486
1078.05	0.760
1078.47	0.306
1078.88	0.752
1079.30	0.760
1079.71	1.678
1080.12	1.252
1080.54	0.877
1080.95	0.615
1081.37	1.957
1081.78	0.439
1082.19	0.931
1082.61	2.430
1083.02	0.456
1083.44	0.855
1083.85	0.716
1084.26	1.888
1084.68	-0.000
1085.09	0.694
1085.50	-0.000
1085.92	-0.000
1086.33	-0.000
1086.74	1.704
1087.16	-0.000
1087.57	-0.000
1087.98	-0.000
1088.40	2.352
1088.81	0.772
1089.22	-0.000
1089.64	1.063
1090.05	-0.000
1090.46	-0.000
1090.88	-0.000
1091.29	-0.000
1091.70	-0.000
1092.12	-0.000
1092.53	-0.000
1092.94	-0.000
1093.36	-0.000
1093.77	-0.000
1094.18	-0.000
1094.59	-0.000
1095.01	-0.000
1095.42	-0.000
1095.83	-0.000
1096.25	-0.000
1096.66	-0.000
1097.07	-0.000
1097.48	-0.000
1097.90	-0.000
1098.31	-0.000
1098.72	-0.000
1099.13	-0.000
>>>>>End Processed Spectral Data<<<<<
