SpectraSuite Data File
++++++++++++++++++++++++++++++++++++
Date: Sun Apr 24 14:47:29 CEST 2016
User: spectrasuite
Dark Spectrum Present: Yes
Reference Spectrum Present: Yes
Number of Sampled Component Spectra: 1
Spectrometers: HR+C0708
Integration Time (usec): 1000 (HR+C0708)
Spectra Averaged: 10 (HR+C0708)
Boxcar Smoothing: 0 (HR+C0708)
Correct for Electrical Dark: No (HR+C0708)
Strobe/Lamp Enabled: No (HR+C0708)
Correct for Detector Non-linearity: No (HR+C0708)
Correct for Stray Light: No (HR+C0708)
Number of Pixels in Processed Spectrum: 2048
>>>>>Begin Processed Spectral Data<<<<<
188.76	-0.000
189.23	-0.000
189.70	-0.000
190.17	-0.000
190.64	-0.000
191.12	-0.000
191.59	-0.000
192.06	-0.000
192.53	-0.000
193.01	-0.000
193.48	-0.000
193.95	-0.000
194.42	-0.000
194.90	0.527
195.37	-0.000
195.84	-0.000
196.31	-0.000
196.78	-0.000
197.26	-0.000
197.73	-0.000
198.20	-0.000
198.67	-0.000
199.14	-0.000
199.62	-0.000
200.09	1.282
200.56	-0.000
201.03	-0.000
201.50	1.169
201.97	-0.000
202.45	-0.000
202.92	1.109
203.39	-0.000
203.86	0.887
204.33	-0.000
204.80	-0.000
205.28	0.742
205.75	-0.000
206.22	1.446
206.69	0.886
207.16	1.325
207.63	1.731
208.11	0.595
208.58	2.782
209.05	1.207
209.52	-0.000
209.99	-0.000
210.46	0.504
210.93	-0.000
211.41	1.129
211.88	0.798
212.35	-0.000
212.82	-0.000
213.29	0.893
213.76	1.227
214.23	-0.000
214.70	1.462
215.18	1.616
215.65	1.131
216.12	1.585
216.59	1.379
217.06	1.199
217.53	1.593
218.00	1.052
218.47	0.994
218.94	-0.000
219.41	1.339
219.89	1.037
220.36	-0.000
220.83	0.989
221.30	-0.000
221.77	1.127
222.24	1.058
222.71	-0.000
223.18	-0.000
223.65	1.439
224.12	-0.000
224.59	-0.000
225.06	-0.000
225.54	1.940
226.01	1.256
226.48	2.302
226.95	-0.000
227.42	1.274
227.89	-0.000
228.36	3.365
228.83	1.725
229.30	3.471
229.77	-0.000
230.24	1.734
230.71	-0.000
231.18	1.871
231.65	1.745
232.12	1.941
232.59	1.845
233.06	-0.000
233.53	2.039
234.00	2.034
234.47	-0.000
234.94	-0.000
235.41	2.212
235.88	3.635
236.35	2.460
236.82	2.286
237.29	2.359
237.76	2.248
238.23	-0.000
238.70	2.724
239.17	2.188
239.64	3.109
240.11	-0.000
240.58	2.302
241.05	-0.000
241.52	3.323
241.99	3.218
242.46	2.850
242.93	2.902
243.40	3.151
243.87	2.876
244.34	2.374
244.81	3.725
245.28	-0.000
245.75	3.110
246.22	-0.000
246.69	3.014
247.16	2.704
247.63	3.483
248.10	2.774
248.57	-0.000
249.04	3.626
249.51	2.751
249.98	-0.000
250.45	3.935
250.92	2.683
251.39	-0.000
251.85	-0.000
252.32	3.277
252.79	3.453
253.26	2.730
253.73	-0.000
254.20	2.842
254.67	2.616
255.14	-0.000
255.61	-0.000
256.08	2.715
256.55	-0.000
257.02	3.163
257.49	3.106
257.95	2.870
258.42	3.196
258.89	3.257
259.36	3.130
259.83	3.096
260.30	-0.000
260.77	-0.000
261.24	2.748
261.71	-0.000
262.17	-0.000
262.64	2.738
263.11	3.159
263.58	-0.000
264.05	3.149
264.52	3.254
264.99	2.922
265.46	3.314
265.92	3.064
266.39	2.780
266.86	4.210
267.33	3.109
267.80	2.796
268.27	3.589
268.74	3.029
269.20	3.227
269.67	3.179
270.14	2.696
270.61	3.417
271.08	3.476
271.55	2.874
272.01	3.372
272.48	3.102
272.95	2.593
273.42	3.133
273.89	2.806
274.36	2.913
274.82	2.930
275.29	2.755
275.76	2.906
276.23	2.720
276.70	2.734
277.16	2.832
277.63	2.655
278.10	2.575
278.57	2.682
279.04	2.957
279.50	2.554
279.97	2.821
280.44	2.494
280.91	2.762
281.38	2.686
281.84	2.561
282.31	2.811
282.78	2.765
283.25	2.590
283.72	2.569
284.18	2.525
284.65	2.595
285.12	2.585
285.59	2.425
286.05	2.743
286.52	2.538
286.99	2.547
287.46	2.551
287.92	2.497
288.39	2.472
288.86	2.602
289.33	2.494
289.79	2.484
290.26	2.600
290.73	2.433
291.20	2.432
291.66	2.504
292.13	2.379
292.60	2.485
293.07	2.389
293.53	2.263
294.00	2.464
294.47	2.461
294.93	2.331
295.40	2.424
295.87	2.369
296.34	2.324
296.80	2.308
297.27	2.306
297.74	2.291
298.20	2.368
298.67	2.237
299.14	2.328
299.60	2.300
300.07	2.205
300.54	2.283
301.01	2.263
301.47	2.173
301.94	2.220
302.41	2.173
302.87	2.254
303.34	2.305
303.81	2.112
304.27	2.239
304.74	2.189
305.21	2.148
305.67	2.192
306.14	2.099
306.61	2.145
307.07	2.178
307.54	2.089
308.01	2.142
308.47	2.141
308.94	2.140
309.40	2.207
309.87	2.113
310.34	2.065
310.80	2.140
311.27	2.092
311.74	2.062
312.20	2.138
312.67	2.069
313.13	2.081
313.60	2.085
314.07	2.039
314.53	2.070
315.00	2.027
315.47	2.036
315.93	2.080
316.40	2.028
316.86	2.026
317.33	2.031
317.80	1.983
318.26	2.005
318.73	1.999
319.19	1.998
319.66	1.997
320.13	1.987
320.59	1.916
321.06	1.999
321.52	2.022
321.99	1.943
322.45	1.926
322.92	1.896
323.39	1.915
323.85	1.922
324.32	1.942
324.78	1.928
325.25	1.927
325.71	1.864
326.18	1.865
326.64	1.915
327.11	1.892
327.58	1.877
328.04	1.838
328.51	1.827
328.97	1.854
329.44	1.778
329.90	1.787
330.37	1.783
330.83	1.722
331.30	1.782
331.76	1.730
332.23	1.703
332.69	1.722
333.16	1.705
333.62	1.678
334.09	1.671
334.56	1.629
335.02	1.617
335.49	1.608
335.95	1.557
336.42	1.564
336.88	1.522
337.35	1.484
337.81	1.491
338.28	1.469
338.74	1.440
339.20	1.424
339.67	1.387
340.13	1.366
340.60	1.326
341.06	1.290
341.53	1.276
341.99	1.246
342.46	1.207
342.92	1.193
343.39	1.160
343.85	1.137
344.32	1.123
344.78	1.100
345.25	1.078
345.71	1.054
346.17	1.027
346.64	1.010
347.10	0.978
347.57	0.950
348.03	0.932
348.50	0.909
348.96	0.888
349.43	0.870
349.89	0.854
350.35	0.839
350.82	0.820
351.28	0.797
351.75	0.789
352.21	0.766
352.67	0.754
353.14	0.752
353.60	0.726
354.07	0.717
354.53	0.704
355.00	0.691
355.46	0.679
355.92	0.666
356.39	0.656
356.85	0.650
357.31	0.642
357.78	0.631
358.24	0.623
358.71	0.615
359.17	0.610
359.63	0.602
360.10	0.598
360.56	0.592
361.03	0.587
361.49	0.578
361.95	0.578
362.42	0.576
362.88	0.563
363.34	0.564
363.81	0.558
364.27	0.556
364.73	0.554
365.20	0.555
365.66	0.548
366.12	0.546
366.59	0.541
367.05	0.542
367.51	0.541
367.98	0.533
368.44	0.533
368.90	0.531
369.37	0.528
369.83	0.527
370.29	0.520
370.76	0.523
371.22	0.524
371.68	0.515
372.15	0.518
372.61	0.509
373.07	0.513
373.54	0.514
374.00	0.506
374.46	0.504
374.92	0.504
375.39	0.503
375.85	0.501
376.31	0.502
376.78	0.500
377.24	0.500
377.70	0.499
378.16	0.491
378.63	0.494
379.09	0.490
379.55	0.487
380.01	0.490
380.48	0.484
380.94	0.483
381.40	0.482
381.87	0.479
382.33	0.480
382.79	0.477
383.25	0.474
383.72	0.479
384.18	0.473
384.64	0.472
385.10	0.470
385.56	0.467
386.03	0.469
386.49	0.465
386.95	0.460
387.41	0.464
387.88	0.460
388.34	0.459
388.80	0.458
389.26	0.458
389.72	0.458
390.19	0.456
390.65	0.453
391.11	0.451
391.57	0.450
392.04	0.448
392.50	0.447
392.96	0.448
393.42	0.444
393.88	0.446
394.34	0.444
394.81	0.441
395.27	0.439
395.73	0.443
396.19	0.435
396.65	0.439
397.12	0.436
397.58	0.433
398.04	0.433
398.50	0.432
398.96	0.430
399.42	0.432
399.89	0.427
400.35	0.429
400.81	0.424
401.27	0.422
401.73	0.424
402.19	0.420
402.65	0.420
403.12	0.420
403.58	0.416
404.04	0.416
404.50	0.422
404.96	0.415
405.42	0.415
405.88	0.413
406.34	0.412
406.81	0.411
407.27	0.411
407.73	0.410
408.19	0.411
408.65	0.408
409.11	0.404
409.57	0.405
410.03	0.400
410.49	0.403
410.96	0.404
411.42	0.401
411.88	0.400
412.34	0.396
412.80	0.400
413.26	0.392
413.72	0.393
414.18	0.392
414.64	0.393
415.10	0.395
415.56	0.390
416.02	0.392
416.48	0.387
416.95	0.386
417.41	0.386
417.87	0.384
418.33	0.386
418.79	0.382
419.25	0.382
419.71	0.382
420.17	0.379
420.63	0.381
421.09	0.378
421.55	0.376
422.01	0.380
422.47	0.378
422.93	0.373
423.39	0.376
423.85	0.375
424.31	0.371
424.77	0.371
425.23	0.371
425.69	0.371
426.15	0.372
426.61	0.368
427.07	0.367
427.53	0.366
427.99	0.364
428.45	0.362
428.91	0.365
429.37	0.363
429.83	0.363
430.29	0.363
430.75	0.363
431.21	0.363
431.67	0.361
432.13	0.362
432.59	0.355
433.05	0.357
433.51	0.353
433.97	0.354
434.43	0.354
434.89	0.358
435.35	0.354
435.81	0.351
436.27	0.350
436.73	0.349
437.19	0.352
437.65	0.354
438.11	0.345
438.57	0.351
439.03	0.347
439.48	0.346
439.94	0.346
440.40	0.344
440.86	0.344
441.32	0.339
441.78	0.344
442.24	0.342
442.70	0.343
443.16	0.339
443.62	0.337
444.08	0.338
444.54	0.339
444.99	0.336
445.45	0.335
445.91	0.330
446.37	0.334
446.83	0.332
447.29	0.332
447.75	0.330
448.21	0.333
448.67	0.330
449.12	0.327
449.58	0.329
450.04	0.327
450.50	0.328
450.96	0.326
451.42	0.325
451.88	0.322
452.34	0.325
452.79	0.322
453.25	0.323
453.71	0.323
454.17	0.320
454.63	0.320
455.09	0.322
455.55	0.318
456.00	0.316
456.46	0.317
456.92	0.317
457.38	0.318
457.84	0.317
458.30	0.311
458.75	0.315
459.21	0.309
459.67	0.309
460.13	0.310
460.59	0.309
461.04	0.309
461.50	0.311
461.96	0.311
462.42	0.309
462.88	0.310
463.33	0.308
463.79	0.305
464.25	0.305
464.71	0.305
465.17	0.306
465.62	0.306
466.08	0.303
466.54	0.303
467.00	0.305
467.46	0.305
467.91	0.303
468.37	0.301
468.83	0.302
469.29	0.301
469.74	0.301
470.20	0.298
470.66	0.298
471.12	0.294
471.57	0.297
472.03	0.298
472.49	0.294
472.95	0.298
473.40	0.295
473.86	0.295
474.32	0.290
474.78	0.292
475.23	0.290
475.69	0.293
476.15	0.291
476.60	0.291
477.06	0.289
477.52	0.286
477.98	0.285
478.43	0.286
478.89	0.286
479.35	0.286
479.80	0.288
480.26	0.289
480.72	0.282
481.18	0.285
481.63	0.283
482.09	0.282
482.55	0.282
483.00	0.282
483.46	0.282
483.92	0.281
484.37	0.281
484.83	0.277
485.29	0.279
485.74	0.275
486.20	0.276
486.66	0.279
487.11	0.278
487.57	0.274
488.03	0.275
488.48	0.275
488.94	0.274
489.40	0.271
489.85	0.273
490.31	0.276
490.77	0.273
491.22	0.275
491.68	0.272
492.13	0.271
492.59	0.272
493.05	0.270
493.50	0.272
493.96	0.269
494.42	0.268
494.87	0.267
495.33	0.267
495.78	0.270
496.24	0.267
496.70	0.267
497.15	0.264
497.61	0.266
498.06	0.263
498.52	0.260
498.98	0.263
499.43	0.264
499.89	0.264
500.34	0.262
500.80	0.264
501.25	0.261
501.71	0.258
502.17	0.259
502.62	0.262
503.08	0.258
503.53	0.257
503.99	0.256
504.44	0.259
504.90	0.255
505.36	0.257
505.81	0.258
506.27	0.255
506.72	0.254
507.18	0.255
507.63	0.253
508.09	0.254
508.54	0.252
509.00	0.252
509.45	0.253
509.91	0.250
510.36	0.250
510.82	0.251
511.27	0.251
511.73	0.252
512.19	0.249
512.64	0.247
513.10	0.249
513.55	0.247
514.01	0.246
514.46	0.247
514.92	0.247
515.37	0.246
515.83	0.248
516.28	0.245
516.73	0.244
517.19	0.246
517.64	0.241
518.10	0.243
518.55	0.242
519.01	0.241
519.46	0.243
519.92	0.242
520.37	0.237
520.83	0.240
521.28	0.240
521.74	0.240
522.19	0.241
522.65	0.240
523.10	0.240
523.55	0.236
524.01	0.240
524.46	0.239
524.92	0.237
525.37	0.235
525.83	0.236
526.28	0.235
526.73	0.237
527.19	0.238
527.64	0.235
528.10	0.235
528.55	0.235
529.01	0.234
529.46	0.235
529.91	0.232
530.37	0.231
530.82	0.232
531.28	0.231
531.73	0.228
532.18	0.228
532.64	0.231
533.09	0.229
533.54	0.229
534.00	0.227
534.45	0.232
534.91	0.229
535.36	0.229
535.81	0.228
536.27	0.226
536.72	0.229
537.17	0.227
537.63	0.225
538.08	0.224
538.54	0.225
538.99	0.223
539.44	0.226
539.90	0.222
540.35	0.223
540.80	0.223
541.26	0.222
541.71	0.222
542.16	0.222
542.62	0.220
543.07	0.221
543.52	0.223
543.98	0.221
544.43	0.222
544.88	0.220
545.34	0.218
545.79	0.220
546.24	0.217
546.69	0.219
547.15	0.219
547.60	0.216
548.05	0.217
548.51	0.214
548.96	0.215
549.41	0.218
549.86	0.215
550.32	0.217
550.77	0.217
551.22	0.214
551.68	0.213
552.13	0.212
552.58	0.212
553.03	0.215
553.49	0.213
553.94	0.213
554.39	0.214
554.84	0.210
555.30	0.213
555.75	0.213
556.20	0.210
556.65	0.209
557.11	0.210
557.56	0.208
558.01	0.212
558.46	0.211
558.92	0.207
559.37	0.208
559.82	0.207
560.27	0.208
560.72	0.205
561.18	0.206
561.63	0.207
562.08	0.205
562.53	0.205
562.99	0.207
563.44	0.205
563.89	0.203
564.34	0.205
564.79	0.205
565.25	0.203
565.70	0.204
566.15	0.203
566.60	0.201
567.05	0.204
567.50	0.201
567.96	0.202
568.41	0.201
568.86	0.198
569.31	0.200
569.76	0.199
570.21	0.199
570.67	0.200
571.12	0.201
571.57	0.198
572.02	0.196
572.47	0.195
572.92	0.197
573.37	0.197
573.83	0.196
574.28	0.197
574.73	0.195
575.18	0.196
575.63	0.198
576.08	0.193
576.53	0.194
576.98	0.194
577.44	0.192
577.89	0.194
578.34	0.192
578.79	0.193
579.24	0.192
579.69	0.193
580.14	0.190
580.59	0.191
581.04	0.189
581.49	0.190
581.95	0.190
582.40	0.189
582.85	0.190
583.30	0.188
583.75	0.186
584.20	0.189
584.65	0.189
585.10	0.188
585.55	0.188
586.00	0.189
586.45	0.187
586.90	0.188
587.35	0.187
587.80	0.185
588.25	0.187
588.71	0.187
589.16	0.184
589.61	0.185
590.06	0.184
590.51	0.185
590.96	0.183
591.41	0.183
591.86	0.184
592.31	0.185
592.76	0.183
593.21	0.185
593.66	0.184
594.11	0.183
594.56	0.182
595.01	0.181
595.46	0.182
595.91	0.182
596.36	0.181
596.81	0.182
597.26	0.180
597.71	0.181
598.16	0.182
598.61	0.181
599.06	0.180
599.51	0.184
599.96	0.182
600.41	0.181
600.86	0.180
601.31	0.180
601.76	0.179
602.21	0.180
602.65	0.178
603.10	0.178
603.55	0.177
604.00	0.177
604.45	0.177
604.90	0.177
605.35	0.176
605.80	0.176
606.25	0.177
606.70	0.177
607.15	0.175
607.60	0.175
608.05	0.175
608.50	0.175
608.95	0.172
609.39	0.177
609.84	0.175
610.29	0.174
610.74	0.173
611.19	0.172
611.64	0.172
612.09	0.173
612.54	0.173
612.99	0.173
613.44	0.170
613.88	0.173
614.33	0.171
614.78	0.170
615.23	0.169
615.68	0.169
616.13	0.169
616.58	0.170
617.03	0.171
617.47	0.171
617.92	0.170
618.37	0.169
618.82	0.169
619.27	0.168
619.72	0.166
620.17	0.167
620.61	0.165
621.06	0.167
621.51	0.167
621.96	0.166
622.41	0.165
622.86	0.165
623.30	0.164
623.75	0.167
624.20	0.167
624.65	0.165
625.10	0.165
625.54	0.165
625.99	0.164
626.44	0.165
626.89	0.167
627.34	0.166
627.78	0.164
628.23	0.161
628.68	0.162
629.13	0.162
629.58	0.163
630.02	0.163
630.47	0.162
630.92	0.163
631.37	0.162
631.81	0.162
632.26	0.161
632.71	0.160
633.16	0.161
633.61	0.161
634.05	0.159
634.50	0.160
634.95	0.160
635.40	0.161
635.84	0.161
636.29	0.161
636.74	0.160
637.18	0.160
637.63	0.160
638.08	0.159
638.53	0.157
638.97	0.159
639.42	0.159
639.87	0.159
640.32	0.157
640.76	0.158
641.21	0.158
641.66	0.158
642.10	0.158
642.55	0.157
643.00	0.156
643.44	0.155
643.89	0.157
644.34	0.155
644.79	0.156
645.23	0.155
645.68	0.156
646.13	0.157
646.57	0.156
647.02	0.155
647.47	0.154
647.91	0.154
648.36	0.155
648.81	0.154
649.25	0.153
649.70	0.153
650.15	0.153
650.59	0.153
651.04	0.153
651.48	0.155
651.93	0.154
652.38	0.151
652.82	0.152
653.27	0.151
653.72	0.152
654.16	0.153
654.61	0.152
655.06	0.150
655.50	0.148
655.95	0.148
656.39	0.145
656.84	0.147
657.29	0.152
657.73	0.149
658.18	0.150
658.62	0.151
659.07	0.150
659.52	0.150
659.96	0.149
660.41	0.150
660.85	0.149
661.30	0.149
661.74	0.150
662.19	0.149
662.64	0.148
663.08	0.148
663.53	0.149
663.97	0.148
664.42	0.148
664.86	0.149
665.31	0.149
665.75	0.147
666.20	0.149
666.65	0.149
667.09	0.147
667.54	0.148
667.98	0.145
668.43	0.146
668.87	0.145
669.32	0.144
669.76	0.146
670.21	0.146
670.65	0.144
671.10	0.144
671.54	0.145
671.99	0.144
672.43	0.145
672.88	0.145
673.32	0.145
673.77	0.142
674.21	0.142
674.66	0.142
675.10	0.142
675.55	0.141
675.99	0.144
676.44	0.142
676.88	0.142
677.33	0.143
677.77	0.142
678.22	0.143
678.66	0.142
679.11	0.141
679.55	0.142
679.99	0.141
680.44	0.142
680.88	0.141
681.33	0.141
681.77	0.139
682.22	0.142
682.66	0.142
683.11	0.140
683.55	0.139
683.99	0.141
684.44	0.139
684.88	0.138
685.33	0.139
685.77	0.140
686.21	0.140
686.66	0.138
687.10	0.138
687.55	0.138
687.99	0.140
688.44	0.140
688.88	0.139
689.32	0.140
689.77	0.138
690.21	0.137
690.65	0.138
691.10	0.141
691.54	0.139
691.99	0.138
692.43	0.138
692.87	0.137
693.32	0.137
693.76	0.138
694.20	0.140
694.65	0.136
695.09	0.137
695.53	0.136
695.98	0.137
696.42	0.136
696.86	0.137
697.31	0.134
697.75	0.134
698.19	0.135
698.64	0.137
699.08	0.135
699.52	0.136
699.97	0.135
700.41	0.135
700.85	0.136
701.30	0.134
701.74	0.137
702.18	0.134
702.63	0.132
703.07	0.135
703.51	0.136
703.96	0.137
704.40	0.134
704.84	0.135
705.28	0.135
705.73	0.135
706.17	0.134
706.61	0.132
707.06	0.133
707.50	0.133
707.94	0.133
708.38	0.133
708.83	0.134
709.27	0.133
709.71	0.133
710.15	0.133
710.60	0.131
711.04	0.133
711.48	0.135
711.92	0.133
712.37	0.132
712.81	0.133
713.25	0.132
713.69	0.133
714.13	0.134
714.58	0.131
715.02	0.133
715.46	0.131
715.90	0.130
716.35	0.132
716.79	0.134
717.23	0.133
717.67	0.131
718.11	0.133
718.56	0.131
719.00	0.133
719.44	0.133
719.88	0.133
720.32	0.131
720.76	0.132
721.21	0.130
721.65	0.132
722.09	0.132
722.53	0.132
722.97	0.133
723.41	0.133
723.86	0.132
724.30	0.131
724.74	0.134
725.18	0.132
725.62	0.130
726.06	0.133
726.50	0.131
726.95	0.131
727.39	0.130
727.83	0.129
728.27	0.132
728.71	0.131
729.15	0.131
729.59	0.135
730.03	0.128
730.48	0.132
730.92	0.131
731.36	0.133
731.80	0.132
732.24	0.135
732.68	0.130
733.12	0.129
733.56	0.132
734.00	0.132
734.44	0.131
734.89	0.136
735.33	0.133
735.77	0.135
736.21	0.132
736.65	0.129
737.09	0.135
737.53	0.132
737.97	0.132
738.41	0.131
738.85	0.135
739.29	0.134
739.73	0.131
740.17	0.131
740.61	0.133
741.05	0.132
741.49	0.134
741.93	0.131
742.37	0.131
742.81	0.130
743.26	0.132
743.70	0.134
744.14	0.132
744.58	0.129
745.02	0.131
745.46	0.131
745.90	0.131
746.34	0.131
746.78	0.132
747.22	0.132
747.66	0.131
748.10	0.131
748.54	0.131
748.98	0.132
749.42	0.130
749.86	0.130
750.29	0.130
750.73	0.128
751.17	0.129
751.61	0.127
752.05	0.130
752.49	0.128
752.93	0.128
753.37	0.130
753.81	0.127
754.25	0.129
754.69	0.126
755.13	0.128
755.57	0.128
756.01	0.128
756.45	0.127
756.89	0.128
757.33	0.126
757.77	0.126
758.21	0.129
758.64	0.127
759.08	0.123
759.52	0.126
759.96	0.129
760.40	0.128
760.84	0.124
761.28	0.125
761.72	0.127
762.16	0.126
762.60	0.128
763.03	0.124
763.47	0.127
763.91	0.127
764.35	0.122
764.79	0.125
765.23	0.122
765.67	0.124
766.11	0.124
766.54	0.121
766.98	0.124
767.42	0.124
767.86	0.121
768.30	0.126
768.74	0.127
769.17	0.125
769.61	0.123
770.05	0.126
770.49	0.126
770.93	0.127
771.37	0.122
771.80	0.122
772.24	0.122
772.68	0.121
773.12	0.121
773.56	0.124
774.00	0.120
774.43	0.121
774.87	0.123
775.31	0.123
775.75	0.125
776.19	0.121
776.62	0.121
777.06	0.123
777.50	0.121
777.94	0.120
778.37	0.121
778.81	0.122
779.25	0.123
779.69	0.123
780.13	0.121
780.56	0.122
781.00	0.120
781.44	0.121
781.88	0.123
782.31	0.120
782.75	0.118
783.19	0.122
783.63	0.118
784.06	0.115
784.50	0.122
784.94	0.123
785.37	0.122
785.81	0.122
786.25	0.123
786.69	0.121
787.12	0.119
787.56	0.115
788.00	0.122
788.43	0.123
788.87	0.120
789.31	0.118
789.75	0.121
790.18	0.116
790.62	0.120
791.06	0.117
791.49	0.120
791.93	0.116
792.37	0.121
792.80	0.119
793.24	0.121
793.68	0.117
794.11	0.118
794.55	0.121
794.99	0.121
795.42	0.119
795.86	0.121
796.30	0.118
796.73	0.120
797.17	0.119
797.61	0.117
798.04	0.118
798.48	0.115
798.91	0.119
799.35	0.116
799.79	0.121
800.22	0.119
800.66	0.110
801.10	0.122
801.53	0.117
801.97	0.120
802.40	0.120
802.84	0.115
803.28	0.116
803.71	0.118
804.15	0.117
804.58	0.117
805.02	0.118
805.46	0.116
805.89	0.116
806.33	0.119
806.76	0.115
807.20	0.118
807.63	0.119
808.07	0.120
808.51	0.116
808.94	0.115
809.38	0.114
809.81	0.114
810.25	0.117
810.68	0.117
811.12	0.113
811.55	0.117
811.99	0.116
812.42	0.118
812.86	0.114
813.29	0.114
813.73	0.118
814.17	0.113
814.60	0.113
815.04	0.113
815.47	0.114
815.91	0.116
816.34	0.114
816.78	0.119
817.21	0.119
817.65	0.114
818.08	0.114
818.52	0.117
818.95	0.117
819.39	0.115
819.82	0.114
820.25	0.116
820.69	0.114
821.12	0.116
821.56	0.115
821.99	0.112
822.43	0.113
822.86	0.118
823.30	0.116
823.73	0.112
824.17	0.116
824.60	0.113
825.04	0.118
825.47	0.117
825.90	0.113
826.34	0.118
826.77	0.114
827.21	0.116
827.64	0.118
828.08	0.114
828.51	0.112
828.94	0.117
829.38	0.112
829.81	0.120
830.25	0.119
830.68	0.117
831.11	0.117
831.55	0.115
831.98	0.119
832.42	0.120
832.85	0.120
833.28	0.121
833.72	0.118
834.15	0.117
834.58	0.120
835.02	0.117
835.45	0.120
835.88	0.120
836.32	0.117
836.75	0.118
837.19	0.124
837.62	0.118
838.05	0.122
838.49	0.124
838.92	0.122
839.35	0.122
839.79	0.122
840.22	0.119
840.65	0.120
841.09	0.122
841.52	0.115
841.95	0.121
842.39	0.121
842.82	0.119
843.25	0.120
843.68	0.120
844.12	0.114
844.55	0.119
844.98	0.118
845.42	0.121
845.85	0.117
846.28	0.116
846.71	0.113
847.15	0.126
847.58	0.122
848.01	0.122
848.45	0.121
848.88	0.122
849.31	0.121
849.74	0.118
850.18	0.119
850.61	0.120
851.04	0.120
851.47	0.124
851.91	0.122
852.34	0.119
852.77	0.124
853.20	0.120
853.64	0.119
854.07	0.123
854.50	0.124
854.93	0.120
855.36	0.125
855.80	0.118
856.23	0.120
856.66	0.122
857.09	0.117
857.52	0.120
857.96	0.115
858.39	0.118
858.82	0.121
859.25	0.123
859.68	0.120
860.12	0.119
860.55	0.120
860.98	0.124
861.41	0.119
861.84	0.118
862.27	0.119
862.71	0.119
863.14	0.122
863.57	0.121
864.00	0.117
864.43	0.119
864.86	0.120
865.30	0.127
865.73	0.124
866.16	0.120
866.59	0.119
867.02	0.122
867.45	0.120
867.88	0.117
868.31	0.122
868.75	0.125
869.18	0.121
869.61	0.121
870.04	0.120
870.47	0.131
870.90	0.122
871.33	0.118
871.76	0.123
872.19	0.125
872.62	0.118
873.06	0.123
873.49	0.124
873.92	0.124
874.35	0.124
874.78	0.124
875.21	0.123
875.64	0.123
876.07	0.127
876.50	0.125
876.93	0.128
877.36	0.120
877.79	0.123
878.22	0.124
878.65	0.126
879.08	0.120
879.51	0.127
879.94	0.121
880.37	0.122
880.80	0.131
881.23	0.121
881.67	0.128
882.10	0.125
882.53	0.128
882.96	0.127
883.39	0.122
883.82	0.124
884.25	0.126
884.68	0.123
885.11	0.131
885.54	0.128
885.97	0.127
886.39	0.121
886.82	0.121
887.25	0.126
887.68	0.124
888.11	0.126
888.54	0.124
888.97	0.126
889.40	0.125
889.83	0.120
890.26	0.124
890.69	0.122
891.12	0.128
891.55	0.127
891.98	0.128
892.41	0.120
892.84	0.128
893.27	0.128
893.70	0.122
894.13	0.129
894.56	0.131
894.98	0.128
895.41	0.132
895.84	0.129
896.27	0.127
896.70	0.130
897.13	0.129
897.56	0.129
897.99	0.129
898.42	0.125
898.85	0.132
899.27	0.124
899.70	0.128
900.13	0.124
900.56	0.133
900.99	0.129
901.42	0.130
901.85	0.128
902.28	0.128
902.70	0.133
903.13	0.128
903.56	0.129
903.99	0.125
904.42	0.130
904.85	0.132
905.27	0.129
905.70	0.128
906.13	0.128
906.56	0.128
906.99	0.132
907.42	0.127
907.84	0.122
908.27	0.128
908.70	0.130
909.13	0.128
909.56	0.126
909.98	0.130
910.41	0.124
910.84	0.130
911.27	0.132
911.70	0.123
912.12	0.121
912.55	0.124
912.98	0.127
913.41	0.129
913.84	0.128
914.26	0.124
914.69	0.133
915.12	0.126
915.55	0.126
915.97	0.129
916.40	0.130
916.83	0.126
917.26	0.129
917.68	0.128
918.11	0.129
918.54	0.125
918.97	0.130
919.39	0.127
919.82	0.130
920.25	0.127
920.67	0.128
921.10	0.132
921.53	0.134
921.96	0.130
922.38	0.129
922.81	0.130
923.24	0.132
923.66	0.131
924.09	0.135
924.52	0.136
924.94	0.130
925.37	0.133
925.80	0.134
926.22	0.133
926.65	0.131
927.08	0.136
927.50	0.136
927.93	0.137
928.36	0.130
928.78	0.134
929.21	0.134
929.64	0.139
930.06	0.143
930.49	0.141
930.92	0.146
931.34	0.144
931.77	0.142
932.20	0.148
932.62	0.144
933.05	0.146
933.47	0.147
933.90	0.144
934.33	0.148
934.75	0.148
935.18	0.148
935.61	0.150
936.03	0.148
936.46	0.155
936.88	0.159
937.31	0.153
937.73	0.155
938.16	0.153
938.59	0.158
939.01	0.161
939.44	0.166
939.86	0.161
940.29	0.167
940.71	0.171
941.14	0.171
941.57	0.168
941.99	0.170
942.42	0.168
942.84	0.184
943.27	0.187
943.69	0.180
944.12	0.184
944.54	0.188
944.97	0.186
945.39	0.187
945.82	0.184
946.24	0.192
946.67	0.188
947.09	0.190
947.52	0.193
947.94	0.195
948.37	0.200
948.79	0.204
949.22	0.205
949.64	0.203
950.07	0.212
950.49	0.211
950.92	0.213
951.34	0.214
951.77	0.218
952.19	0.218
952.62	0.222
953.04	0.224
953.47	0.229
953.89	0.234
954.32	0.235
954.74	0.240
955.17	0.231
955.59	0.249
956.01	0.245
956.44	0.251
956.86	0.251
957.29	0.256
957.71	0.257
958.14	0.260
958.56	0.258
958.98	0.260
959.41	0.263
959.83	0.256
960.26	0.267
960.68	0.270
961.10	0.265
961.53	0.276
961.95	0.267
962.38	0.272
962.80	0.268
963.22	0.269
963.65	0.273
964.07	0.275
964.50	0.279
964.92	0.277
965.34	0.281
965.77	0.274
966.19	0.284
966.61	0.278
967.04	0.282
967.46	0.282
967.88	0.290
968.31	0.277
968.73	0.281
969.15	0.282
969.58	0.285
970.00	0.281
970.42	0.281
970.85	0.283
971.27	0.285
971.69	0.276
972.12	0.292
972.54	0.289
972.96	0.288
973.39	0.289
973.81	0.291
974.23	0.290
974.65	0.281
975.08	0.287
975.50	0.288
975.92	0.283
976.35	0.293
976.77	0.291
977.19	0.288
977.61	0.284
978.04	0.284
978.46	0.290
978.88	0.286
979.30	0.293
979.73	0.282
980.15	0.293
980.57	0.292
980.99	0.283
981.42	0.287
981.84	0.288
982.26	0.288
982.68	0.279
983.11	0.287
983.53	0.286
983.95	0.295
984.37	0.286
984.79	0.290
985.22	0.288
985.64	0.283
986.06	0.293
986.48	0.289
986.90	0.282
987.33	0.278
987.75	0.280
988.17	0.278
988.59	0.281
989.01	0.277
989.43	0.277
989.86	0.282
990.28	0.281
990.70	0.278
991.12	0.283
991.54	0.277
991.96	0.272
992.39	0.281
992.81	0.269
993.23	0.273
993.65	0.267
994.07	0.266
994.49	0.271
994.91	0.272
995.34	0.263
995.76	0.267
996.18	0.269
996.60	0.268
997.02	0.272
997.44	0.261
997.86	0.268
998.28	0.265
998.70	0.263
999.12	0.259
999.55	0.259
999.97	0.267
1000.39	0.260
1000.81	0.253
1001.23	0.257
1001.65	0.258
1002.07	0.264
1002.49	0.266
1002.91	0.261
1003.33	0.258
1003.75	0.256
1004.17	0.255
1004.59	0.256
1005.01	0.254
1005.43	0.251
1005.85	0.250
1006.28	0.243
1006.70	0.245
1007.12	0.244
1007.54	0.252
1007.96	0.243
1008.38	0.250
1008.80	0.247
1009.22	0.247
1009.64	0.249
1010.06	0.244
1010.48	0.244
1010.90	0.249
1011.32	0.237
1011.74	0.237
1012.16	0.243
1012.58	0.229
1013.00	0.237
1013.42	0.231
1013.84	0.229
1014.26	0.234
1014.67	0.235
1015.09	0.238
1015.51	0.231
1015.93	0.221
1016.35	0.224
1016.77	0.234
1017.19	0.224
1017.61	0.230
1018.03	0.233
1018.45	0.234
1018.87	0.235
1019.29	0.222
1019.71	0.225
1020.13	0.215
1020.55	0.220
1020.97	0.215
1021.38	0.208
1021.80	0.203
1022.22	0.230
1022.64	0.212
1023.06	0.210
1023.48	0.214
1023.90	0.211
1024.32	0.207
1024.74	0.214
1025.15	0.197
1025.57	0.213
1025.99	0.207
1026.41	0.209
1026.83	0.208
1027.25	0.211
1027.67	0.207
1028.08	0.203
1028.50	0.202
1028.92	0.212
1029.34	0.204
1029.76	0.199
1030.18	0.200
1030.60	0.192
1031.01	0.196
1031.43	0.205
1031.85	0.205
1032.27	0.202
1032.69	0.193
1033.10	0.196
1033.52	0.197
1033.94	0.189
1034.36	0.186
1034.78	0.201
1035.19	0.199
1035.61	0.191
1036.03	0.204
1036.45	0.188
1036.87	0.182
1037.28	0.190
1037.70	0.174
1038.12	0.193
1038.54	0.183
1038.95	0.165
1039.37	0.197
1039.79	0.181
1040.21	0.178
1040.62	0.198
1041.04	0.183
1041.46	0.174
1041.88	0.189
1042.29	0.188
1042.71	0.184
1043.13	0.204
1043.55	0.163
1043.96	0.199
1044.38	0.194
1044.80	0.170
1045.21	0.174
1045.63	0.169
1046.05	0.164
1046.47	0.198
1046.88	0.175
1047.30	0.180
1047.72	0.173
1048.13	0.149
1048.55	0.177
1048.97	0.188
1049.38	0.190
1049.80	0.179
1050.22	0.205
1050.63	0.148
1051.05	0.180
1051.47	0.178
1051.88	0.158
1052.30	0.192
1052.72	0.161
1053.13	0.168
1053.55	0.184
1053.97	0.161
1054.38	0.188
1054.80	0.170
1055.21	0.192
1055.63	0.175
1056.05	0.162
1056.46	0.182
1056.88	0.181
1057.29	0.180
1057.71	0.209
1058.13	0.186
1058.54	0.198
1058.96	0.215
1059.37	0.179
1059.79	0.184
1060.21	0.201
1060.62	0.183
1061.04	0.158
1061.45	0.215
1061.87	0.165
1062.28	0.220
1062.70	0.196
1063.12	0.152
1063.53	0.162
1063.95	0.192
1064.36	0.180
1064.78	0.240
1065.19	0.242
1065.61	0.225
1066.02	0.207
1066.44	0.168
1066.85	0.201
1067.27	0.308
1067.68	0.203
1068.10	0.273
1068.51	0.260
1068.93	0.227
1069.35	0.294
1069.76	0.301
1070.17	0.188
1070.59	0.270
1071.00	0.241
1071.42	0.247
1071.83	0.373
1072.25	0.335
1072.66	0.294
1073.08	0.351
1073.49	0.355
1073.91	0.378
1074.32	0.355
1074.74	0.248
1075.15	0.420
1075.57	0.288
1075.98	0.368
1076.40	0.458
1076.81	0.386
1077.22	0.596
1077.64	0.423
1078.05	0.214
1078.47	0.591
1078.88	0.493
1079.30	0.436
1079.71	0.757
1080.12	0.541
1080.54	0.659
1080.95	0.585
1081.37	0.762
1081.78	0.515
1082.19	0.269
1082.61	0.417
1083.02	-0.000
1083.44	1.031
1083.85	-0.000
1084.26	-0.000
1084.68	0.890
1085.09	0.489
1085.50	-0.000
1085.92	1.639
1086.33	-0.000
1086.74	1.625
1087.16	1.106
1087.57	-0.000
1087.98	0.762
1088.40	0.418
1088.81	-0.000
1089.22	-0.000
1089.64	0.519
1090.05	1.176
1090.46	-0.000
1090.88	-0.000
1091.29	-0.000
1091.70	-0.000
1092.12	-0.000
1092.53	-0.000
1092.94	-0.000
1093.36	-0.000
1093.77	-0.000
1094.18	1.223
1094.59	-0.000
1095.01	-0.000
1095.42	-0.000
1095.83	-0.000
1096.25	-0.000
1096.66	-0.000
1097.07	-0.000
1097.48	-0.000
1097.90	-0.000
1098.31	-0.000
1098.72	-0.000
1099.13	-0.000
>>>>>End Processed Spectral Data<<<<<
