SpectraSuite Data File
++++++++++++++++++++++++++++++++++++
Date: Sun Apr 24 15:58:48 CEST 2016
User: spectrasuite
Dark Spectrum Present: Yes
Reference Spectrum Present: Yes
Number of Sampled Component Spectra: 1
Spectrometers: HR+C0708
Integration Time (usec): 1000 (HR+C0708)
Spectra Averaged: 10 (HR+C0708)
Boxcar Smoothing: 0 (HR+C0708)
Correct for Electrical Dark: No (HR+C0708)
Strobe/Lamp Enabled: No (HR+C0708)
Correct for Detector Non-linearity: No (HR+C0708)
Correct for Stray Light: No (HR+C0708)
Number of Pixels in Processed Spectrum: 2048
>>>>>Begin Processed Spectral Data<<<<<
188.76	-0.000
189.23	-0.000
189.70	-0.000
190.17	-0.000
190.64	-0.000
191.12	-0.000
191.59	-0.000
192.06	-0.000
192.53	-0.000
193.01	-0.000
193.48	-0.000
193.95	-0.000
194.42	-0.000
194.90	-0.000
195.37	-0.000
195.84	-0.000
196.31	-0.000
196.78	-0.000
197.26	-0.000
197.73	-0.000
198.20	-0.000
198.67	-0.000
199.14	-0.000
199.62	-0.000
200.09	-0.000
200.56	-0.000
201.03	-0.000
201.50	-0.000
201.97	1.582
202.45	-0.000
202.92	0.907
203.39	-0.000
203.86	1.134
204.33	1.765
204.80	1.319
205.28	1.489
205.75	-0.000
206.22	-0.000
206.69	1.525
207.16	-0.000
207.63	2.385
208.11	0.688
208.58	2.305
209.05	1.069
209.52	1.598
209.99	-0.000
210.46	-0.000
210.93	-0.000
211.41	1.419
211.88	-0.000
212.35	-0.000
212.82	-0.000
213.29	0.927
213.76	1.396
214.23	2.697
214.70	-0.000
215.18	-0.000
215.65	1.488
216.12	-0.000
216.59	-0.000
217.06	-0.000
217.53	1.396
218.00	2.475
218.47	1.106
218.94	-0.000
219.41	-0.000
219.89	1.800
220.36	1.228
220.83	1.271
221.30	1.341
221.77	1.859
222.24	-0.000
222.71	-0.000
223.18	-0.000
223.65	1.754
224.12	-0.000
224.59	-0.000
225.06	-0.000
225.54	1.559
226.01	1.238
226.48	-0.000
226.95	-0.000
227.42	-0.000
227.89	-0.000
228.36	1.657
228.83	-0.000
229.30	-0.000
229.77	-0.000
230.24	1.882
230.71	-0.000
231.18	2.132
231.65	2.064
232.12	2.093
232.59	2.777
233.06	-0.000
233.53	-0.000
234.00	2.245
234.47	-0.000
234.94	-0.000
235.41	2.297
235.88	-0.000
236.35	-0.000
236.82	2.541
237.29	2.353
237.76	2.618
238.23	2.632
238.70	-0.000
239.17	2.424
239.64	-0.000
240.11	-0.000
240.58	2.808
241.05	2.701
241.52	-0.000
241.99	-0.000
242.46	2.915
242.93	3.662
243.40	2.858
243.87	2.957
244.34	2.644
244.81	2.904
245.28	-0.000
245.75	-0.000
246.22	3.136
246.69	-0.000
247.16	3.511
247.63	2.773
248.10	2.860
248.57	2.944
249.04	3.559
249.51	4.103
249.98	-0.000
250.45	-0.000
250.92	2.857
251.39	-0.000
251.85	-0.000
252.32	-0.000
252.79	-0.000
253.26	3.084
253.73	-0.000
254.20	2.920
254.67	2.658
255.14	3.281
255.61	3.910
256.08	3.136
256.55	-0.000
257.02	3.007
257.49	3.221
257.95	2.991
258.42	3.171
258.89	3.187
259.36	2.697
259.83	3.704
260.30	-0.000
260.77	-0.000
261.24	2.981
261.71	3.726
262.17	3.404
262.64	2.809
263.11	3.080
263.58	3.803
264.05	2.844
264.52	2.805
264.99	2.949
265.46	3.083
265.92	2.824
266.39	2.756
266.86	4.289
267.33	2.835
267.80	2.582
268.27	3.123
268.74	2.837
269.20	2.889
269.67	2.804
270.14	2.638
270.61	2.660
271.08	2.604
271.55	2.594
272.01	2.637
272.48	2.692
272.95	2.583
273.42	2.665
273.89	2.676
274.36	2.608
274.82	2.519
275.29	2.436
275.76	2.631
276.23	2.486
276.70	2.584
277.16	2.415
277.63	2.430
278.10	2.436
278.57	2.423
279.04	2.397
279.50	2.385
279.97	2.392
280.44	2.289
280.91	2.319
281.38	2.255
281.84	2.341
282.31	2.326
282.78	2.394
283.25	2.324
283.72	2.225
284.18	2.275
284.65	2.252
285.12	2.163
285.59	2.151
286.05	2.204
286.52	2.217
286.99	2.191
287.46	2.202
287.92	2.168
288.39	2.130
288.86	2.133
289.33	2.152
289.79	2.122
290.26	2.135
290.73	2.148
291.20	2.098
291.66	2.108
292.13	2.097
292.60	2.096
293.07	2.075
293.53	2.037
294.00	2.100
294.47	2.057
294.93	2.026
295.40	2.063
295.87	2.041
296.34	2.013
296.80	1.977
297.27	1.986
297.74	1.996
298.20	1.988
298.67	1.955
299.14	2.005
299.60	1.999
300.07	1.968
300.54	1.939
301.01	1.934
301.47	1.893
301.94	1.909
302.41	1.892
302.87	1.914
303.34	1.931
303.81	1.897
304.27	1.913
304.74	1.850
305.21	1.852
305.67	1.899
306.14	1.842
306.61	1.868
307.07	1.850
307.54	1.810
308.01	1.820
308.47	1.823
308.94	1.838
309.40	1.838
309.87	1.802
310.34	1.788
310.80	1.793
311.27	1.780
311.74	1.771
312.20	1.779
312.67	1.756
313.13	1.754
313.60	1.773
314.07	1.756
314.53	1.745
315.00	1.721
315.47	1.771
315.93	1.740
316.40	1.713
316.86	1.708
317.33	1.716
317.80	1.685
318.26	1.693
318.73	1.703
319.19	1.688
319.66	1.679
320.13	1.668
320.59	1.675
321.06	1.666
321.52	1.670
321.99	1.675
322.45	1.645
322.92	1.620
323.39	1.639
323.85	1.637
324.32	1.614
324.78	1.610
325.25	1.611
325.71	1.589
326.18	1.585
326.64	1.596
327.11	1.589
327.58	1.580
328.04	1.570
328.51	1.565
328.97	1.565
329.44	1.527
329.90	1.535
330.37	1.522
330.83	1.508
331.30	1.510
331.76	1.493
332.23	1.487
332.69	1.476
333.16	1.460
333.62	1.444
334.09	1.445
334.56	1.423
335.02	1.425
335.49	1.401
335.95	1.383
336.42	1.379
336.88	1.358
337.35	1.350
337.81	1.340
338.28	1.311
338.74	1.295
339.20	1.294
339.67	1.274
340.13	1.262
340.60	1.243
341.06	1.229
341.53	1.212
341.99	1.196
342.46	1.174
342.92	1.157
343.39	1.148
343.85	1.128
344.32	1.106
344.78	1.097
345.25	1.089
345.71	1.068
346.17	1.055
346.64	1.042
347.10	1.024
347.57	0.993
348.03	0.982
348.50	0.956
348.96	0.944
349.43	0.931
349.89	0.911
350.35	0.904
350.82	0.892
351.28	0.877
351.75	0.864
352.21	0.849
352.67	0.833
353.14	0.832
353.60	0.815
354.07	0.807
354.53	0.787
355.00	0.778
355.46	0.762
355.92	0.757
356.39	0.745
356.85	0.735
357.31	0.730
357.78	0.725
358.24	0.715
358.71	0.707
359.17	0.697
359.63	0.689
360.10	0.688
360.56	0.684
361.03	0.675
361.49	0.670
361.95	0.664
362.42	0.662
362.88	0.654
363.34	0.647
363.81	0.648
364.27	0.645
364.73	0.640
365.20	0.638
365.66	0.634
366.12	0.633
366.59	0.630
367.05	0.626
367.51	0.619
367.98	0.622
368.44	0.619
368.90	0.618
369.37	0.612
369.83	0.610
370.29	0.610
370.76	0.605
371.22	0.602
371.68	0.601
372.15	0.598
372.61	0.596
373.07	0.590
373.54	0.590
374.00	0.591
374.46	0.592
374.92	0.587
375.39	0.586
375.85	0.582
376.31	0.584
376.78	0.581
377.24	0.577
377.70	0.576
378.16	0.572
378.63	0.572
379.09	0.571
379.55	0.568
380.01	0.568
380.48	0.566
380.94	0.560
381.40	0.559
381.87	0.555
382.33	0.554
382.79	0.554
383.25	0.553
383.72	0.554
384.18	0.551
384.64	0.549
385.10	0.545
385.56	0.547
386.03	0.542
386.49	0.540
386.95	0.538
387.41	0.541
387.88	0.536
388.34	0.533
388.80	0.530
389.26	0.534
389.72	0.531
390.19	0.535
390.65	0.526
391.11	0.527
391.57	0.526
392.04	0.525
392.50	0.521
392.96	0.518
393.42	0.517
393.88	0.520
394.34	0.516
394.81	0.513
395.27	0.510
395.73	0.514
396.19	0.510
396.65	0.508
397.12	0.510
397.58	0.505
398.04	0.505
398.50	0.502
398.96	0.500
399.42	0.508
399.89	0.501
400.35	0.499
400.81	0.496
401.27	0.498
401.73	0.494
402.19	0.492
402.65	0.492
403.12	0.490
403.58	0.488
404.04	0.486
404.50	0.485
404.96	0.483
405.42	0.484
405.88	0.486
406.34	0.482
406.81	0.481
407.27	0.479
407.73	0.478
408.19	0.474
408.65	0.470
409.11	0.471
409.57	0.472
410.03	0.470
410.49	0.471
410.96	0.467
411.42	0.468
411.88	0.461
412.34	0.460
412.80	0.462
413.26	0.457
413.72	0.461
414.18	0.458
414.64	0.453
415.10	0.459
415.56	0.456
416.02	0.456
416.48	0.452
416.95	0.452
417.41	0.452
417.87	0.451
418.33	0.448
418.79	0.446
419.25	0.444
419.71	0.447
420.17	0.445
420.63	0.442
421.09	0.439
421.55	0.440
422.01	0.439
422.47	0.440
422.93	0.440
423.39	0.437
423.85	0.436
424.31	0.437
424.77	0.435
425.23	0.435
425.69	0.435
426.15	0.429
426.61	0.427
427.07	0.427
427.53	0.430
427.99	0.426
428.45	0.427
428.91	0.424
429.37	0.422
429.83	0.423
430.29	0.420
430.75	0.424
431.21	0.421
431.67	0.421
432.13	0.419
432.59	0.415
433.05	0.416
433.51	0.410
433.97	0.414
434.43	0.414
434.89	0.415
435.35	0.412
435.81	0.410
436.27	0.412
436.73	0.407
437.19	0.405
437.65	0.409
438.11	0.404
438.57	0.406
439.03	0.403
439.48	0.405
439.94	0.401
440.40	0.401
440.86	0.401
441.32	0.398
441.78	0.399
442.24	0.398
442.70	0.399
443.16	0.393
443.62	0.394
444.08	0.394
444.54	0.392
444.99	0.390
445.45	0.390
445.91	0.386
446.37	0.391
446.83	0.386
447.29	0.388
447.75	0.387
448.21	0.387
448.67	0.384
449.12	0.381
449.58	0.382
450.04	0.378
450.50	0.379
450.96	0.382
451.42	0.377
451.88	0.374
452.34	0.376
452.79	0.374
453.25	0.377
453.71	0.374
454.17	0.375
454.63	0.378
455.09	0.376
455.55	0.371
456.00	0.369
456.46	0.369
456.92	0.368
457.38	0.369
457.84	0.367
458.30	0.363
458.75	0.369
459.21	0.359
459.67	0.365
460.13	0.365
460.59	0.359
461.04	0.360
461.50	0.363
461.96	0.360
462.42	0.357
462.88	0.356
463.33	0.356
463.79	0.358
464.25	0.356
464.71	0.355
465.17	0.357
465.62	0.354
466.08	0.352
466.54	0.353
467.00	0.352
467.46	0.355
467.91	0.350
468.37	0.350
468.83	0.348
469.29	0.347
469.74	0.349
470.20	0.346
470.66	0.344
471.12	0.343
471.57	0.343
472.03	0.343
472.49	0.343
472.95	0.343
473.40	0.341
473.86	0.338
474.32	0.338
474.78	0.340
475.23	0.337
475.69	0.340
476.15	0.338
476.60	0.339
477.06	0.337
477.52	0.338
477.98	0.333
478.43	0.333
478.89	0.333
479.35	0.332
479.80	0.334
480.26	0.332
480.72	0.330
481.18	0.331
481.63	0.329
482.09	0.330
482.55	0.328
483.00	0.328
483.46	0.326
483.92	0.325
484.37	0.326
484.83	0.323
485.29	0.321
485.74	0.322
486.20	0.324
486.66	0.323
487.11	0.320
487.57	0.319
488.03	0.319
488.48	0.318
488.94	0.316
489.40	0.319
489.85	0.318
490.31	0.318
490.77	0.316
491.22	0.316
491.68	0.313
492.13	0.314
492.59	0.313
493.05	0.313
493.50	0.314
493.96	0.310
494.42	0.312
494.87	0.308
495.33	0.305
495.78	0.312
496.24	0.312
496.70	0.308
497.15	0.306
497.61	0.307
498.06	0.306
498.52	0.302
498.98	0.304
499.43	0.305
499.89	0.306
500.34	0.302
500.80	0.304
501.25	0.303
501.71	0.302
502.17	0.300
502.62	0.302
503.08	0.302
503.53	0.299
503.99	0.299
504.44	0.298
504.90	0.299
505.36	0.298
505.81	0.298
506.27	0.296
506.72	0.297
507.18	0.295
507.63	0.297
508.09	0.295
508.54	0.291
509.00	0.293
509.45	0.295
509.91	0.289
510.36	0.293
510.82	0.288
511.27	0.289
511.73	0.288
512.19	0.288
512.64	0.288
513.10	0.286
513.55	0.289
514.01	0.285
514.46	0.285
514.92	0.287
515.37	0.285
515.83	0.284
516.28	0.283
516.73	0.281
517.19	0.281
517.64	0.280
518.10	0.281
518.55	0.279
519.01	0.279
519.46	0.282
519.92	0.281
520.37	0.279
520.83	0.277
521.28	0.278
521.74	0.278
522.19	0.276
522.65	0.277
523.10	0.278
523.55	0.276
524.01	0.278
524.46	0.276
524.92	0.273
525.37	0.274
525.83	0.272
526.28	0.271
526.73	0.274
527.19	0.274
527.64	0.273
528.10	0.274
528.55	0.270
529.01	0.270
529.46	0.269
529.91	0.269
530.37	0.268
530.82	0.268
531.28	0.265
531.73	0.266
532.18	0.265
532.64	0.266
533.09	0.266
533.54	0.262
534.00	0.264
534.45	0.265
534.91	0.263
535.36	0.264
535.81	0.264
536.27	0.262
536.72	0.264
537.17	0.261
537.63	0.261
538.08	0.260
538.54	0.261
538.99	0.262
539.44	0.260
539.90	0.258
540.35	0.259
540.80	0.258
541.26	0.261
541.71	0.256
542.16	0.260
542.62	0.255
543.07	0.256
543.52	0.256
543.98	0.257
544.43	0.254
544.88	0.253
545.34	0.256
545.79	0.253
546.24	0.252
546.69	0.254
547.15	0.251
547.60	0.251
548.05	0.255
548.51	0.251
548.96	0.249
549.41	0.251
549.86	0.251
550.32	0.249
550.77	0.251
551.22	0.250
551.68	0.247
552.13	0.247
552.58	0.248
553.03	0.247
553.49	0.249
553.94	0.245
554.39	0.247
554.84	0.246
555.30	0.244
555.75	0.245
556.20	0.245
556.65	0.243
557.11	0.245
557.56	0.242
558.01	0.245
558.46	0.243
558.92	0.242
559.37	0.240
559.82	0.241
560.27	0.242
560.72	0.240
561.18	0.240
561.63	0.239
562.08	0.237
562.53	0.239
562.99	0.239
563.44	0.238
563.89	0.238
564.34	0.237
564.79	0.237
565.25	0.236
565.70	0.235
566.15	0.234
566.60	0.234
567.05	0.234
567.50	0.235
567.96	0.231
568.41	0.233
568.86	0.233
569.31	0.230
569.76	0.230
570.21	0.232
570.67	0.231
571.12	0.230
571.57	0.231
572.02	0.230
572.47	0.229
572.92	0.229
573.37	0.228
573.83	0.227
574.28	0.228
574.73	0.229
575.18	0.228
575.63	0.228
576.08	0.223
576.53	0.225
576.98	0.227
577.44	0.224
577.89	0.225
578.34	0.224
578.79	0.224
579.24	0.223
579.69	0.225
580.14	0.221
580.59	0.220
581.04	0.221
581.49	0.222
581.95	0.221
582.40	0.220
582.85	0.220
583.30	0.219
583.75	0.218
584.20	0.219
584.65	0.218
585.10	0.218
585.55	0.217
586.00	0.217
586.45	0.215
586.90	0.217
587.35	0.216
587.80	0.215
588.25	0.214
588.71	0.216
589.16	0.214
589.61	0.214
590.06	0.213
590.51	0.214
590.96	0.212
591.41	0.211
591.86	0.213
592.31	0.213
592.76	0.213
593.21	0.212
593.66	0.215
594.11	0.212
594.56	0.211
595.01	0.211
595.46	0.209
595.91	0.210
596.36	0.211
596.81	0.210
597.26	0.210
597.71	0.208
598.16	0.208
598.61	0.207
599.06	0.209
599.51	0.209
599.96	0.209
600.41	0.207
600.86	0.210
601.31	0.208
601.76	0.207
602.21	0.207
602.65	0.207
603.10	0.208
603.55	0.205
604.00	0.206
604.45	0.205
604.90	0.204
605.35	0.205
605.80	0.205
606.25	0.205
606.70	0.204
607.15	0.202
607.60	0.204
608.05	0.204
608.50	0.202
608.95	0.201
609.39	0.202
609.84	0.202
610.29	0.201
610.74	0.202
611.19	0.200
611.64	0.200
612.09	0.198
612.54	0.197
612.99	0.198
613.44	0.197
613.88	0.199
614.33	0.198
614.78	0.197
615.23	0.196
615.68	0.197
616.13	0.197
616.58	0.195
617.03	0.197
617.47	0.198
617.92	0.196
618.37	0.195
618.82	0.194
619.27	0.193
619.72	0.192
620.17	0.191
620.61	0.192
621.06	0.193
621.51	0.193
621.96	0.192
622.41	0.193
622.86	0.193
623.30	0.190
623.75	0.193
624.20	0.191
624.65	0.190
625.10	0.190
625.54	0.191
625.99	0.190
626.44	0.190
626.89	0.191
627.34	0.191
627.78	0.190
628.23	0.190
628.68	0.190
629.13	0.188
629.58	0.188
630.02	0.189
630.47	0.189
630.92	0.187
631.37	0.186
631.81	0.188
632.26	0.187
632.71	0.187
633.16	0.186
633.61	0.183
634.05	0.186
634.50	0.185
634.95	0.185
635.40	0.186
635.84	0.187
636.29	0.185
636.74	0.187
637.18	0.183
637.63	0.184
638.08	0.183
638.53	0.182
638.97	0.184
639.42	0.185
639.87	0.182
640.32	0.181
640.76	0.181
641.21	0.182
641.66	0.182
642.10	0.183
642.55	0.182
643.00	0.180
643.44	0.182
643.89	0.182
644.34	0.179
644.79	0.179
645.23	0.180
645.68	0.181
646.13	0.179
646.57	0.182
647.02	0.178
647.47	0.183
647.91	0.179
648.36	0.179
648.81	0.178
649.25	0.177
649.70	0.176
650.15	0.178
650.59	0.177
651.04	0.176
651.48	0.180
651.93	0.176
652.38	0.176
652.82	0.176
653.27	0.174
653.72	0.178
654.16	0.174
654.61	0.179
655.06	0.174
655.50	0.172
655.95	0.173
656.39	0.169
656.84	0.171
657.29	0.175
657.73	0.173
658.18	0.173
658.62	0.174
659.07	0.173
659.52	0.174
659.96	0.174
660.41	0.173
660.85	0.173
661.30	0.173
661.74	0.173
662.19	0.169
662.64	0.172
663.08	0.171
663.53	0.170
663.97	0.171
664.42	0.170
664.86	0.173
665.31	0.171
665.75	0.168
666.20	0.172
666.65	0.171
667.09	0.170
667.54	0.171
667.98	0.170
668.43	0.170
668.87	0.167
669.32	0.169
669.76	0.169
670.21	0.168
670.65	0.164
671.10	0.168
671.54	0.166
671.99	0.166
672.43	0.166
672.88	0.167
673.32	0.167
673.77	0.165
674.21	0.166
674.66	0.167
675.10	0.164
675.55	0.164
675.99	0.167
676.44	0.166
676.88	0.167
677.33	0.165
677.77	0.164
678.22	0.164
678.66	0.161
679.11	0.164
679.55	0.163
679.99	0.164
680.44	0.166
680.88	0.163
681.33	0.162
681.77	0.161
682.22	0.165
682.66	0.164
683.11	0.162
683.55	0.160
683.99	0.161
684.44	0.160
684.88	0.159
685.33	0.160
685.77	0.162
686.21	0.161
686.66	0.162
687.10	0.161
687.55	0.160
687.99	0.162
688.44	0.162
688.88	0.161
689.32	0.162
689.77	0.159
690.21	0.159
690.65	0.159
691.10	0.160
691.54	0.158
691.99	0.160
692.43	0.157
692.87	0.156
693.32	0.157
693.76	0.160
694.20	0.158
694.65	0.158
695.09	0.157
695.53	0.156
695.98	0.157
696.42	0.157
696.86	0.157
697.31	0.156
697.75	0.158
698.19	0.155
698.64	0.154
699.08	0.155
699.52	0.157
699.97	0.157
700.41	0.156
700.85	0.157
701.30	0.154
701.74	0.156
702.18	0.156
702.63	0.154
703.07	0.156
703.51	0.157
703.96	0.154
704.40	0.154
704.84	0.155
705.28	0.153
705.73	0.154
706.17	0.153
706.61	0.153
707.06	0.153
707.50	0.155
707.94	0.152
708.38	0.152
708.83	0.153
709.27	0.153
709.71	0.152
710.15	0.154
710.60	0.152
711.04	0.151
711.48	0.154
711.92	0.153
712.37	0.153
712.81	0.153
713.25	0.152
713.69	0.150
714.13	0.155
714.58	0.153
715.02	0.152
715.46	0.153
715.90	0.150
716.35	0.149
716.79	0.152
717.23	0.152
717.67	0.149
718.11	0.153
718.56	0.151
719.00	0.154
719.44	0.152
719.88	0.150
720.32	0.151
720.76	0.153
721.21	0.149
721.65	0.149
722.09	0.151
722.53	0.151
722.97	0.152
723.41	0.149
723.86	0.154
724.30	0.148
724.74	0.152
725.18	0.151
725.62	0.150
726.06	0.150
726.50	0.150
726.95	0.146
727.39	0.151
727.83	0.148
728.27	0.149
728.71	0.150
729.15	0.149
729.59	0.151
730.03	0.149
730.48	0.150
730.92	0.147
731.36	0.150
731.80	0.151
732.24	0.151
732.68	0.149
733.12	0.147
733.56	0.148
734.00	0.149
734.44	0.151
734.89	0.150
735.33	0.149
735.77	0.152
736.21	0.153
736.65	0.148
737.09	0.151
737.53	0.151
737.97	0.149
738.41	0.150
738.85	0.154
739.29	0.153
739.73	0.148
740.17	0.149
740.61	0.151
741.05	0.150
741.49	0.150
741.93	0.148
742.37	0.147
742.81	0.150
743.26	0.150
743.70	0.148
744.14	0.149
744.58	0.147
745.02	0.150
745.46	0.147
745.90	0.147
746.34	0.149
746.78	0.146
747.22	0.148
747.66	0.148
748.10	0.146
748.54	0.145
748.98	0.146
749.42	0.146
749.86	0.147
750.29	0.146
750.73	0.145
751.17	0.145
751.61	0.145
752.05	0.147
752.49	0.145
752.93	0.144
753.37	0.143
753.81	0.144
754.25	0.145
754.69	0.142
755.13	0.144
755.57	0.145
756.01	0.145
756.45	0.146
756.89	0.145
757.33	0.148
757.77	0.144
758.21	0.144
758.64	0.142
759.08	0.139
759.52	0.144
759.96	0.144
760.40	0.141
760.84	0.142
761.28	0.144
761.72	0.143
762.16	0.145
762.60	0.143
763.03	0.140
763.47	0.140
763.91	0.142
764.35	0.140
764.79	0.139
765.23	0.139
765.67	0.137
766.11	0.138
766.54	0.140
766.98	0.141
767.42	0.139
767.86	0.139
768.30	0.142
768.74	0.143
769.17	0.145
769.61	0.140
770.05	0.139
770.49	0.140
770.93	0.140
771.37	0.136
771.80	0.137
772.24	0.141
772.68	0.140
773.12	0.140
773.56	0.138
774.00	0.138
774.43	0.137
774.87	0.138
775.31	0.139
775.75	0.138
776.19	0.138
776.62	0.139
777.06	0.139
777.50	0.139
777.94	0.138
778.37	0.134
778.81	0.138
779.25	0.138
779.69	0.141
780.13	0.136
780.56	0.135
781.00	0.135
781.44	0.138
781.88	0.136
782.31	0.135
782.75	0.134
783.19	0.138
783.63	0.135
784.06	0.134
784.50	0.138
784.94	0.137
785.37	0.137
785.81	0.139
786.25	0.139
786.69	0.134
787.12	0.135
787.56	0.134
788.00	0.138
788.43	0.139
788.87	0.138
789.31	0.135
789.75	0.138
790.18	0.133
790.62	0.133
791.06	0.135
791.49	0.133
791.93	0.133
792.37	0.136
792.80	0.132
793.24	0.133
793.68	0.133
794.11	0.133
794.55	0.137
794.99	0.133
795.42	0.133
795.86	0.138
796.30	0.131
796.73	0.132
797.17	0.136
797.61	0.133
798.04	0.133
798.48	0.134
798.91	0.131
799.35	0.133
799.79	0.135
800.22	0.134
800.66	0.132
801.10	0.131
801.53	0.133
801.97	0.137
802.40	0.134
802.84	0.133
803.28	0.129
803.71	0.133
804.15	0.132
804.58	0.131
805.02	0.132
805.46	0.132
805.89	0.132
806.33	0.132
806.76	0.130
807.20	0.132
807.63	0.128
808.07	0.135
808.51	0.129
808.94	0.129
809.38	0.129
809.81	0.129
810.25	0.132
810.68	0.131
811.12	0.131
811.55	0.131
811.99	0.133
812.42	0.130
812.86	0.129
813.29	0.127
813.73	0.129
814.17	0.127
814.60	0.131
815.04	0.129
815.47	0.129
815.91	0.131
816.34	0.130
816.78	0.129
817.21	0.133
817.65	0.130
818.08	0.129
818.52	0.130
818.95	0.129
819.39	0.131
819.82	0.128
820.25	0.128
820.69	0.129
821.12	0.134
821.56	0.125
821.99	0.126
822.43	0.129
822.86	0.128
823.30	0.131
823.73	0.128
824.17	0.127
824.60	0.127
825.04	0.130
825.47	0.131
825.90	0.127
826.34	0.133
826.77	0.131
827.21	0.129
827.64	0.131
828.08	0.129
828.51	0.131
828.94	0.129
829.38	0.128
829.81	0.132
830.25	0.129
830.68	0.135
831.11	0.130
831.55	0.129
831.98	0.132
832.42	0.134
832.85	0.132
833.28	0.134
833.72	0.134
834.15	0.131
834.58	0.133
835.02	0.134
835.45	0.138
835.88	0.134
836.32	0.137
836.75	0.131
837.19	0.133
837.62	0.131
838.05	0.134
838.49	0.133
838.92	0.135
839.35	0.133
839.79	0.137
840.22	0.136
840.65	0.131
841.09	0.133
841.52	0.127
841.95	0.129
842.39	0.135
842.82	0.130
843.25	0.133
843.68	0.132
844.12	0.130
844.55	0.131
844.98	0.130
845.42	0.133
845.85	0.132
846.28	0.131
846.71	0.133
847.15	0.135
847.58	0.133
848.01	0.135
848.45	0.135
848.88	0.135
849.31	0.135
849.74	0.133
850.18	0.135
850.61	0.132
851.04	0.133
851.47	0.133
851.91	0.134
852.34	0.136
852.77	0.136
853.20	0.135
853.64	0.131
854.07	0.133
854.50	0.134
854.93	0.135
855.36	0.135
855.80	0.133
856.23	0.132
856.66	0.137
857.09	0.131
857.52	0.134
857.96	0.132
858.39	0.137
858.82	0.134
859.25	0.134
859.68	0.137
860.12	0.135
860.55	0.131
860.98	0.135
861.41	0.136
861.84	0.131
862.27	0.130
862.71	0.130
863.14	0.135
863.57	0.136
864.00	0.133
864.43	0.138
864.86	0.135
865.30	0.138
865.73	0.145
866.16	0.136
866.59	0.134
867.02	0.132
867.45	0.136
867.88	0.136
868.31	0.133
868.75	0.135
869.18	0.139
869.61	0.137
870.04	0.135
870.47	0.133
870.90	0.135
871.33	0.135
871.76	0.138
872.19	0.139
872.62	0.131
873.06	0.136
873.49	0.135
873.92	0.135
874.35	0.134
874.78	0.136
875.21	0.130
875.64	0.136
876.07	0.143
876.50	0.133
876.93	0.136
877.36	0.139
877.79	0.136
878.22	0.130
878.65	0.140
879.08	0.134
879.51	0.140
879.94	0.134
880.37	0.131
880.80	0.139
881.23	0.132
881.67	0.142
882.10	0.134
882.53	0.137
882.96	0.139
883.39	0.139
883.82	0.134
884.25	0.139
884.68	0.138
885.11	0.139
885.54	0.141
885.97	0.137
886.39	0.135
886.82	0.140
887.25	0.137
887.68	0.130
888.11	0.139
888.54	0.135
888.97	0.138
889.40	0.142
889.83	0.138
890.26	0.133
890.69	0.134
891.12	0.135
891.55	0.135
891.98	0.135
892.41	0.133
892.84	0.141
893.27	0.140
893.70	0.142
894.13	0.143
894.56	0.139
894.98	0.143
895.41	0.144
895.84	0.139
896.27	0.137
896.70	0.134
897.13	0.140
897.56	0.139
897.99	0.138
898.42	0.134
898.85	0.141
899.27	0.137
899.70	0.137
900.13	0.141
900.56	0.138
900.99	0.140
901.42	0.140
901.85	0.137
902.28	0.138
902.70	0.145
903.13	0.141
903.56	0.141
903.99	0.141
904.42	0.136
904.85	0.141
905.27	0.136
905.70	0.141
906.13	0.143
906.56	0.137
906.99	0.142
907.42	0.140
907.84	0.134
908.27	0.142
908.70	0.144
909.13	0.141
909.56	0.138
909.98	0.140
910.41	0.140
910.84	0.141
911.27	0.142
911.70	0.137
912.12	0.136
912.55	0.138
912.98	0.143
913.41	0.142
913.84	0.140
914.26	0.136
914.69	0.139
915.12	0.139
915.55	0.135
915.97	0.138
916.40	0.143
916.83	0.139
917.26	0.139
917.68	0.140
918.11	0.141
918.54	0.138
918.97	0.141
919.39	0.137
919.82	0.137
920.25	0.139
920.67	0.140
921.10	0.143
921.53	0.145
921.96	0.144
922.38	0.142
922.81	0.140
923.24	0.143
923.66	0.139
924.09	0.143
924.52	0.144
924.94	0.142
925.37	0.145
925.80	0.147
926.22	0.144
926.65	0.142
927.08	0.146
927.50	0.148
927.93	0.149
928.36	0.145
928.78	0.148
929.21	0.147
929.64	0.149
930.06	0.155
930.49	0.155
930.92	0.155
931.34	0.154
931.77	0.152
932.20	0.154
932.62	0.153
933.05	0.155
933.47	0.158
933.90	0.157
934.33	0.153
934.75	0.159
935.18	0.161
935.61	0.161
936.03	0.161
936.46	0.165
936.88	0.168
937.31	0.165
937.73	0.171
938.16	0.167
938.59	0.170
939.01	0.172
939.44	0.174
939.86	0.173
940.29	0.176
940.71	0.184
941.14	0.181
941.57	0.179
941.99	0.184
942.42	0.195
942.84	0.196
943.27	0.198
943.69	0.193
944.12	0.192
944.54	0.201
944.97	0.194
945.39	0.194
945.82	0.204
946.24	0.204
946.67	0.198
947.09	0.209
947.52	0.207
947.94	0.209
948.37	0.211
948.79	0.212
949.22	0.218
949.64	0.215
950.07	0.221
950.49	0.222
950.92	0.227
951.34	0.222
951.77	0.224
952.19	0.229
952.62	0.234
953.04	0.241
953.47	0.241
953.89	0.242
954.32	0.246
954.74	0.247
955.17	0.246
955.59	0.258
956.01	0.257
956.44	0.256
956.86	0.266
957.29	0.261
957.71	0.267
958.14	0.267
958.56	0.272
958.98	0.276
959.41	0.275
959.83	0.277
960.26	0.273
960.68	0.285
961.10	0.278
961.53	0.288
961.95	0.280
962.38	0.280
962.80	0.281
963.22	0.282
963.65	0.290
964.07	0.281
964.50	0.290
964.92	0.288
965.34	0.291
965.77	0.287
966.19	0.288
966.61	0.293
967.04	0.296
967.46	0.293
967.88	0.295
968.31	0.288
968.73	0.291
969.15	0.295
969.58	0.292
970.00	0.293
970.42	0.295
970.85	0.288
971.27	0.299
971.69	0.293
972.12	0.300
972.54	0.302
972.96	0.294
973.39	0.303
973.81	0.303
974.23	0.301
974.65	0.301
975.08	0.293
975.50	0.302
975.92	0.295
976.35	0.295
976.77	0.301
977.19	0.299
977.61	0.298
978.04	0.294
978.46	0.302
978.88	0.291
979.30	0.303
979.73	0.304
980.15	0.296
980.57	0.302
980.99	0.300
981.42	0.295
981.84	0.304
982.26	0.298
982.68	0.299
983.11	0.295
983.53	0.291
983.95	0.296
984.37	0.294
984.79	0.285
985.22	0.296
985.64	0.296
986.06	0.299
986.48	0.296
986.90	0.292
987.33	0.286
987.75	0.285
988.17	0.285
988.59	0.287
989.01	0.288
989.43	0.281
989.86	0.287
990.28	0.288
990.70	0.287
991.12	0.284
991.54	0.288
991.96	0.285
992.39	0.286
992.81	0.281
993.23	0.282
993.65	0.286
994.07	0.280
994.49	0.281
994.91	0.285
995.34	0.278
995.76	0.278
996.18	0.282
996.60	0.281
997.02	0.279
997.44	0.277
997.86	0.279
998.28	0.273
998.70	0.273
999.12	0.273
999.55	0.269
999.97	0.274
1000.39	0.269
1000.81	0.273
1001.23	0.271
1001.65	0.271
1002.07	0.268
1002.49	0.274
1002.91	0.265
1003.33	0.267
1003.75	0.263
1004.17	0.270
1004.59	0.263
1005.01	0.270
1005.43	0.261
1005.85	0.259
1006.28	0.258
1006.70	0.257
1007.12	0.255
1007.54	0.260
1007.96	0.254
1008.38	0.257
1008.80	0.259
1009.22	0.253
1009.64	0.253
1010.06	0.252
1010.48	0.253
1010.90	0.253
1011.32	0.246
1011.74	0.248
1012.16	0.254
1012.58	0.244
1013.00	0.241
1013.42	0.228
1013.84	0.239
1014.26	0.235
1014.67	0.246
1015.09	0.239
1015.51	0.243
1015.93	0.245
1016.35	0.235
1016.77	0.247
1017.19	0.236
1017.61	0.239
1018.03	0.237
1018.45	0.235
1018.87	0.239
1019.29	0.230
1019.71	0.231
1020.13	0.234
1020.55	0.233
1020.97	0.225
1021.38	0.222
1021.80	0.214
1022.22	0.222
1022.64	0.216
1023.06	0.217
1023.48	0.230
1023.90	0.221
1024.32	0.214
1024.74	0.223
1025.15	0.218
1025.57	0.218
1025.99	0.217
1026.41	0.221
1026.83	0.225
1027.25	0.222
1027.67	0.219
1028.08	0.212
1028.50	0.229
1028.92	0.218
1029.34	0.211
1029.76	0.215
1030.18	0.208
1030.60	0.217
1031.01	0.211
1031.43	0.212
1031.85	0.221
1032.27	0.215
1032.69	0.203
1033.10	0.219
1033.52	0.196
1033.94	0.190
1034.36	0.192
1034.78	0.208
1035.19	0.214
1035.61	0.207
1036.03	0.210
1036.45	0.213
1036.87	0.197
1037.28	0.199
1037.70	0.195
1038.12	0.186
1038.54	0.194
1038.95	0.178
1039.37	0.200
1039.79	0.188
1040.21	0.206
1040.62	0.206
1041.04	0.189
1041.46	0.198
1041.88	0.188
1042.29	0.189
1042.71	0.205
1043.13	0.200
1043.55	0.192
1043.96	0.200
1044.38	0.191
1044.80	0.201
1045.21	0.199
1045.63	0.187
1046.05	0.183
1046.47	0.194
1046.88	0.184
1047.30	0.203
1047.72	0.171
1048.13	0.169
1048.55	0.189
1048.97	0.182
1049.38	0.217
1049.80	0.198
1050.22	0.217
1050.63	0.188
1051.05	0.188
1051.47	0.207
1051.88	0.179
1052.30	0.206
1052.72	0.177
1053.13	0.176
1053.55	0.193
1053.97	0.196
1054.38	0.194
1054.80	0.207
1055.21	0.219
1055.63	0.161
1056.05	0.171
1056.46	0.204
1056.88	0.185
1057.29	0.188
1057.71	0.191
1058.13	0.210
1058.54	0.211
1058.96	0.201
1059.37	0.178
1059.79	0.216
1060.21	0.215
1060.62	0.215
1061.04	0.178
1061.45	0.196
1061.87	0.198
1062.28	0.191
1062.70	0.214
1063.12	0.170
1063.53	0.192
1063.95	0.217
1064.36	0.239
1064.78	0.245
1065.19	0.264
1065.61	0.296
1066.02	0.215
1066.44	0.240
1066.85	0.239
1067.27	0.287
1067.68	0.257
1068.10	0.204
1068.51	0.238
1068.93	0.312
1069.35	0.346
1069.76	0.249
1070.17	0.255
1070.59	0.269
1071.00	0.310
1071.42	0.225
1071.83	0.359
1072.25	0.343
1072.66	0.301
1073.08	0.511
1073.49	0.442
1073.91	0.363
1074.32	0.332
1074.74	0.281
1075.15	0.459
1075.57	0.297
1075.98	0.397
1076.40	0.420
1076.81	0.495
1077.22	0.195
1077.64	0.243
1078.05	0.444
1078.47	0.362
1078.88	0.576
1079.30	0.703
1079.71	1.009
1080.12	-0.000
1080.54	0.987
1080.95	0.735
1081.37	1.435
1081.78	0.368
1082.19	0.528
1082.61	-0.000
1083.02	1.294
1083.44	1.366
1083.85	0.976
1084.26	-0.000
1084.68	-0.000
1085.09	-0.000
1085.50	-0.000
1085.92	-0.000
1086.33	-0.000
1086.74	-0.000
1087.16	-0.000
1087.57	0.580
1087.98	0.699
1088.40	-0.000
1088.81	-0.000
1089.22	-0.000
1089.64	-0.000
1090.05	-0.000
1090.46	-0.000
1090.88	-0.000
1091.29	-0.000
1091.70	-0.000
1092.12	1.402
1092.53	-0.000
1092.94	-0.000
1093.36	-0.000
1093.77	-0.000
1094.18	-0.000
1094.59	-0.000
1095.01	-0.000
1095.42	-0.000
1095.83	-0.000
1096.25	-0.000
1096.66	-0.000
1097.07	-0.000
1097.48	2.283
1097.90	-0.000
1098.31	-0.000
1098.72	-0.000
1099.13	-0.000
>>>>>End Processed Spectral Data<<<<<
