SpectraSuite Data File
++++++++++++++++++++++++++++++++++++
Date: Sun Apr 24 13:15:04 CEST 2016
User: spectrasuite
Dark Spectrum Present: Yes
Reference Spectrum Present: Yes
Number of Sampled Component Spectra: 1
Spectrometers: HR+C0708
Integration Time (usec): 1000 (HR+C0708)
Spectra Averaged: 10 (HR+C0708)
Boxcar Smoothing: 0 (HR+C0708)
Correct for Electrical Dark: No (HR+C0708)
Strobe/Lamp Enabled: No (HR+C0708)
Correct for Detector Non-linearity: No (HR+C0708)
Correct for Stray Light: No (HR+C0708)
Number of Pixels in Processed Spectrum: 2048
>>>>>Begin Processed Spectral Data<<<<<
188.76	-0.000
189.23	0.508
189.70	-0.000
190.17	-0.000
190.64	-0.000
191.12	-0.000
191.59	-0.000
192.06	-0.000
192.53	-0.000
193.01	-0.000
193.48	-0.000
193.95	-0.000
194.42	0.863
194.90	0.785
195.37	-0.000
195.84	-0.000
196.31	0.385
196.78	-0.000
197.26	1.839
197.73	-0.000
198.20	0.639
198.67	-0.000
199.14	0.287
199.62	-0.000
200.09	1.034
200.56	-0.000
201.03	1.269
201.50	0.451
201.97	0.582
202.45	0.795
202.92	0.635
203.39	0.525
203.86	0.816
204.33	1.035
204.80	0.631
205.28	0.674
205.75	-0.000
206.22	0.726
206.69	0.525
207.16	1.249
207.63	0.487
208.11	0.586
208.58	0.618
209.05	1.207
209.52	-0.000
209.99	0.558
210.46	0.764
210.93	1.916
211.41	0.623
211.88	0.600
212.35	1.680
212.82	1.695
213.29	0.622
213.76	0.737
214.23	0.957
214.70	1.027
215.18	0.838
215.65	0.668
216.12	0.724
216.59	0.725
217.06	0.778
217.53	0.983
218.00	0.884
218.47	0.787
218.94	0.854
219.41	1.449
219.89	0.980
220.36	0.794
220.83	0.888
221.30	0.990
221.77	0.822
222.24	0.922
222.71	-0.000
223.18	1.520
223.65	1.043
224.12	1.408
224.59	-0.000
225.06	1.156
225.54	1.229
226.01	1.377
226.48	1.061
226.95	1.248
227.42	1.166
227.89	1.585
228.36	1.348
228.83	1.533
229.30	1.579
229.77	2.142
230.24	1.385
230.71	1.686
231.18	2.010
231.65	1.799
232.12	1.575
232.59	1.850
233.06	2.635
233.53	1.840
234.00	1.760
234.47	2.792
234.94	2.925
235.41	2.004
235.88	2.198
236.35	3.151
236.82	2.138
237.29	2.085
237.76	2.441
238.23	2.704
238.70	2.130
239.17	2.038
239.64	2.480
240.11	2.604
240.58	3.080
241.05	2.447
241.52	2.642
241.99	2.734
242.46	2.227
242.93	2.857
243.40	2.970
243.87	2.407
244.34	2.405
244.81	3.084
245.28	2.874
245.75	2.586
246.22	2.642
246.69	2.945
247.16	3.043
247.63	2.502
248.10	2.867
248.57	3.037
249.04	3.042
249.51	2.615
249.98	3.121
250.45	2.617
250.92	2.713
251.39	2.767
251.85	3.031
252.32	4.010
252.79	2.663
253.26	3.126
253.73	-0.000
254.20	2.437
254.67	2.532
255.14	2.686
255.61	2.844
256.08	2.891
256.55	3.012
257.02	2.911
257.49	-0.000
257.95	2.696
258.42	2.798
258.89	2.990
259.36	2.702
259.83	2.966
260.30	-0.000
260.77	3.212
261.24	2.971
261.71	3.059
262.17	3.175
262.64	2.741
263.11	2.923
263.58	2.988
264.05	2.884
264.52	2.704
264.99	2.753
265.46	3.004
265.92	3.205
266.39	2.844
266.86	3.608
267.33	3.158
267.80	2.631
268.27	2.933
268.74	3.131
269.20	3.653
269.67	2.804
270.14	2.715
270.61	2.828
271.08	2.896
271.55	2.654
272.01	2.813
272.48	2.922
272.95	2.790
273.42	2.761
273.89	3.194
274.36	2.921
274.82	2.510
275.29	2.690
275.76	2.780
276.23	2.946
276.70	2.945
277.16	2.876
277.63	2.677
278.10	2.683
278.57	2.737
279.04	2.864
279.50	3.178
279.97	2.649
280.44	2.552
280.91	2.835
281.38	2.532
281.84	2.661
282.31	3.097
282.78	3.121
283.25	2.609
283.72	2.678
284.18	2.662
284.65	2.821
285.12	2.552
285.59	2.623
286.05	2.711
286.52	2.580
286.99	2.752
287.46	2.745
287.92	2.587
288.39	2.629
288.86	2.623
289.33	2.592
289.79	2.596
290.26	2.583
290.73	2.669
291.20	2.715
291.66	2.715
292.13	2.610
292.60	2.617
293.07	2.582
293.53	2.370
294.00	2.547
294.47	2.624
294.93	2.506
295.40	2.529
295.87	2.637
296.34	2.499
296.80	2.425
297.27	2.490
297.74	2.550
298.20	2.584
298.67	2.403
299.14	2.675
299.60	2.449
300.07	2.484
300.54	2.426
301.01	2.392
301.47	2.325
301.94	2.353
302.41	2.386
302.87	2.418
303.34	2.468
303.81	2.262
304.27	2.323
304.74	2.299
305.21	2.340
305.67	2.354
306.14	2.267
306.61	2.346
307.07	2.250
307.54	2.258
308.01	2.379
308.47	2.280
308.94	2.248
309.40	2.347
309.87	2.293
310.34	2.264
310.80	2.355
311.27	2.305
311.74	2.298
312.20	2.262
312.67	2.259
313.13	2.157
313.60	2.280
314.07	2.282
314.53	2.277
315.00	2.204
315.47	2.239
315.93	2.306
316.40	2.234
316.86	2.238
317.33	2.194
317.80	2.233
318.26	2.275
318.73	2.335
319.19	2.284
319.66	2.193
320.13	2.214
320.59	2.218
321.06	2.266
321.52	2.262
321.99	2.233
322.45	2.158
322.92	2.161
323.39	2.228
323.85	2.146
324.32	2.195
324.78	2.190
325.25	2.214
325.71	2.104
326.18	2.143
326.64	2.170
327.11	2.098
327.58	2.029
328.04	2.044
328.51	2.046
328.97	2.002
329.44	1.995
329.90	1.969
330.37	2.000
330.83	1.918
331.30	1.945
331.76	1.870
332.23	1.862
332.69	1.812
333.16	1.778
333.62	1.763
334.09	1.709
334.56	1.688
335.02	1.642
335.49	1.580
335.95	1.529
336.42	1.499
336.88	1.450
337.35	1.403
337.81	1.370
338.28	1.328
338.74	1.291
339.20	1.252
339.67	1.207
340.13	1.173
340.60	1.113
341.06	1.061
341.53	1.024
341.99	0.982
342.46	0.939
342.92	0.901
343.39	0.864
343.85	0.826
344.32	0.799
344.78	0.776
345.25	0.742
345.71	0.716
346.17	0.680
346.64	0.650
347.10	0.612
347.57	0.577
348.03	0.545
348.50	0.517
348.96	0.494
349.43	0.472
349.89	0.452
350.35	0.429
350.82	0.407
351.28	0.395
351.75	0.375
352.21	0.353
352.67	0.340
353.14	0.328
353.60	0.313
354.07	0.305
354.53	0.288
355.00	0.283
355.46	0.267
355.92	0.256
356.39	0.250
356.85	0.246
357.31	0.236
357.78	0.228
358.24	0.222
358.71	0.216
359.17	0.214
359.63	0.207
360.10	0.207
360.56	0.204
361.03	0.201
361.49	0.195
361.95	0.196
362.42	0.192
362.88	0.190
363.34	0.186
363.81	0.184
364.27	0.183
364.73	0.183
365.20	0.184
365.66	0.182
366.12	0.177
366.59	0.177
367.05	0.180
367.51	0.175
367.98	0.174
368.44	0.174
368.90	0.174
369.37	0.174
369.83	0.166
370.29	0.171
370.76	0.170
371.22	0.167
371.68	0.169
372.15	0.167
372.61	0.164
373.07	0.163
373.54	0.162
374.00	0.163
374.46	0.162
374.92	0.162
375.39	0.161
375.85	0.162
376.31	0.162
376.78	0.160
377.24	0.160
377.70	0.161
378.16	0.157
378.63	0.157
379.09	0.157
379.55	0.157
380.01	0.158
380.48	0.157
380.94	0.155
381.40	0.154
381.87	0.154
382.33	0.154
382.79	0.153
383.25	0.152
383.72	0.156
384.18	0.153
384.64	0.150
385.10	0.152
385.56	0.152
386.03	0.149
386.49	0.149
386.95	0.149
387.41	0.149
387.88	0.150
388.34	0.144
388.80	0.148
389.26	0.149
389.72	0.149
390.19	0.149
390.65	0.146
391.11	0.148
391.57	0.147
392.04	0.146
392.50	0.144
392.96	0.145
393.42	0.143
393.88	0.145
394.34	0.144
394.81	0.144
395.27	0.144
395.73	0.143
396.19	0.143
396.65	0.145
397.12	0.139
397.58	0.139
398.04	0.139
398.50	0.140
398.96	0.135
399.42	0.141
399.89	0.138
400.35	0.137
400.81	0.135
401.27	0.135
401.73	0.135
402.19	0.132
402.65	0.134
403.12	0.134
403.58	0.132
404.04	0.135
404.50	0.131
404.96	0.130
405.42	0.131
405.88	0.131
406.34	0.130
406.81	0.130
407.27	0.129
407.73	0.127
408.19	0.126
408.65	0.127
409.11	0.124
409.57	0.126
410.03	0.123
410.49	0.126
410.96	0.126
411.42	0.124
411.88	0.124
412.34	0.121
412.80	0.123
413.26	0.120
413.72	0.123
414.18	0.121
414.64	0.120
415.10	0.123
415.56	0.125
416.02	0.123
416.48	0.120
416.95	0.118
417.41	0.118
417.87	0.116
418.33	0.121
418.79	0.116
419.25	0.118
419.71	0.118
420.17	0.118
420.63	0.118
421.09	0.115
421.55	0.113
422.01	0.115
422.47	0.114
422.93	0.117
423.39	0.115
423.85	0.117
424.31	0.114
424.77	0.114
425.23	0.117
425.69	0.116
426.15	0.114
426.61	0.115
427.07	0.114
427.53	0.113
427.99	0.112
428.45	0.116
428.91	0.116
429.37	0.111
429.83	0.111
430.29	0.113
430.75	0.113
431.21	0.115
431.67	0.113
432.13	0.111
432.59	0.109
433.05	0.111
433.51	0.111
433.97	0.111
434.43	0.111
434.89	0.112
435.35	0.112
435.81	0.110
436.27	0.108
436.73	0.111
437.19	0.109
437.65	0.110
438.11	0.108
438.57	0.110
439.03	0.109
439.48	0.108
439.94	0.106
440.40	0.109
440.86	0.110
441.32	0.106
441.78	0.110
442.24	0.109
442.70	0.107
443.16	0.105
443.62	0.104
444.08	0.107
444.54	0.107
444.99	0.105
445.45	0.106
445.91	0.108
446.37	0.108
446.83	0.108
447.29	0.105
447.75	0.106
448.21	0.108
448.67	0.107
449.12	0.105
449.58	0.108
450.04	0.104
450.50	0.109
450.96	0.109
451.42	0.106
451.88	0.104
452.34	0.104
452.79	0.104
453.25	0.104
453.71	0.104
454.17	0.103
454.63	0.105
455.09	0.105
455.55	0.103
456.00	0.106
456.46	0.105
456.92	0.104
457.38	0.106
457.84	0.102
458.30	0.102
458.75	0.106
459.21	0.099
459.67	0.105
460.13	0.106
460.59	0.104
461.04	0.104
461.50	0.106
461.96	0.102
462.42	0.104
462.88	0.103
463.33	0.104
463.79	0.102
464.25	0.102
464.71	0.103
465.17	0.104
465.62	0.101
466.08	0.103
466.54	0.103
467.00	0.103
467.46	0.106
467.91	0.102
468.37	0.103
468.83	0.103
469.29	0.102
469.74	0.105
470.20	0.103
470.66	0.102
471.12	0.101
471.57	0.104
472.03	0.102
472.49	0.104
472.95	0.104
473.40	0.103
473.86	0.102
474.32	0.100
474.78	0.102
475.23	0.103
475.69	0.103
476.15	0.103
476.60	0.105
477.06	0.102
477.52	0.104
477.98	0.104
478.43	0.103
478.89	0.103
479.35	0.101
479.80	0.104
480.26	0.104
480.72	0.102
481.18	0.103
481.63	0.105
482.09	0.104
482.55	0.104
483.00	0.103
483.46	0.102
483.92	0.102
484.37	0.103
484.83	0.101
485.29	0.101
485.74	0.104
486.20	0.103
486.66	0.101
487.11	0.101
487.57	0.102
488.03	0.101
488.48	0.102
488.94	0.100
489.40	0.102
489.85	0.103
490.31	0.103
490.77	0.103
491.22	0.104
491.68	0.100
492.13	0.100
492.59	0.100
493.05	0.102
493.50	0.102
493.96	0.100
494.42	0.100
494.87	0.102
495.33	0.100
495.78	0.103
496.24	0.102
496.70	0.103
497.15	0.101
497.61	0.102
498.06	0.101
498.52	0.100
498.98	0.100
499.43	0.099
499.89	0.102
500.34	0.101
500.80	0.101
501.25	0.102
501.71	0.099
502.17	0.100
502.62	0.101
503.08	0.100
503.53	0.100
503.99	0.098
504.44	0.100
504.90	0.100
505.36	0.097
505.81	0.098
506.27	0.099
506.72	0.101
507.18	0.099
507.63	0.097
508.09	0.100
508.54	0.098
509.00	0.097
509.45	0.098
509.91	0.097
510.36	0.099
510.82	0.098
511.27	0.097
511.73	0.099
512.19	0.097
512.64	0.095
513.10	0.098
513.55	0.099
514.01	0.096
514.46	0.098
514.92	0.101
515.37	0.100
515.83	0.099
516.28	0.096
516.73	0.097
517.19	0.098
517.64	0.095
518.10	0.096
518.55	0.096
519.01	0.096
519.46	0.095
519.92	0.098
520.37	0.093
520.83	0.096
521.28	0.097
521.74	0.097
522.19	0.096
522.65	0.094
523.10	0.097
523.55	0.096
524.01	0.098
524.46	0.096
524.92	0.096
525.37	0.094
525.83	0.097
526.28	0.097
526.73	0.097
527.19	0.098
527.64	0.098
528.10	0.095
528.55	0.095
529.01	0.098
529.46	0.096
529.91	0.096
530.37	0.095
530.82	0.095
531.28	0.097
531.73	0.096
532.18	0.096
532.64	0.098
533.09	0.096
533.54	0.097
534.00	0.097
534.45	0.099
534.91	0.101
535.36	0.100
535.81	0.099
536.27	0.100
536.72	0.098
537.17	0.101
537.63	0.099
538.08	0.097
538.54	0.102
538.99	0.100
539.44	0.100
539.90	0.101
540.35	0.102
540.80	0.101
541.26	0.103
541.71	0.102
542.16	0.103
542.62	0.101
543.07	0.103
543.52	0.105
543.98	0.105
544.43	0.104
544.88	0.104
545.34	0.105
545.79	0.104
546.24	0.104
546.69	0.109
547.15	0.108
547.60	0.107
548.05	0.108
548.51	0.107
548.96	0.109
549.41	0.111
549.86	0.110
550.32	0.112
550.77	0.113
551.22	0.113
551.68	0.111
552.13	0.112
552.58	0.111
553.03	0.114
553.49	0.114
553.94	0.115
554.39	0.117
554.84	0.119
555.30	0.118
555.75	0.118
556.20	0.119
556.65	0.118
557.11	0.120
557.56	0.119
558.01	0.122
558.46	0.123
558.92	0.122
559.37	0.124
559.82	0.124
560.27	0.127
560.72	0.125
561.18	0.126
561.63	0.129
562.08	0.128
562.53	0.131
562.99	0.130
563.44	0.130
563.89	0.129
564.34	0.134
564.79	0.134
565.25	0.133
565.70	0.133
566.15	0.134
566.60	0.135
567.05	0.137
567.50	0.140
567.96	0.139
568.41	0.137
568.86	0.139
569.31	0.140
569.76	0.142
570.21	0.143
570.67	0.144
571.12	0.145
571.57	0.147
572.02	0.146
572.47	0.148
572.92	0.148
573.37	0.150
573.83	0.151
574.28	0.153
574.73	0.152
575.18	0.155
575.63	0.157
576.08	0.156
576.53	0.157
576.98	0.160
577.44	0.160
577.89	0.160
578.34	0.162
578.79	0.164
579.24	0.166
579.69	0.169
580.14	0.166
580.59	0.170
581.04	0.170
581.49	0.172
581.95	0.173
582.40	0.176
582.85	0.176
583.30	0.177
583.75	0.179
584.20	0.184
584.65	0.184
585.10	0.187
585.55	0.188
586.00	0.190
586.45	0.193
586.90	0.196
587.35	0.198
587.80	0.197
588.25	0.201
588.71	0.203
589.16	0.206
589.61	0.208
590.06	0.211
590.51	0.214
590.96	0.215
591.41	0.217
591.86	0.221
592.31	0.221
592.76	0.225
593.21	0.226
593.66	0.231
594.11	0.235
594.56	0.232
595.01	0.239
595.46	0.240
595.91	0.244
596.36	0.246
596.81	0.248
597.26	0.252
597.71	0.254
598.16	0.257
598.61	0.260
599.06	0.262
599.51	0.266
599.96	0.269
600.41	0.269
600.86	0.273
601.31	0.276
601.76	0.278
602.21	0.281
602.65	0.286
603.10	0.287
603.55	0.290
604.00	0.292
604.45	0.293
604.90	0.296
605.35	0.299
605.80	0.303
606.25	0.307
606.70	0.308
607.15	0.309
607.60	0.312
608.05	0.313
608.50	0.316
608.95	0.317
609.39	0.324
609.84	0.320
610.29	0.324
610.74	0.326
611.19	0.326
611.64	0.328
612.09	0.330
612.54	0.332
612.99	0.333
613.44	0.333
613.88	0.337
614.33	0.338
614.78	0.337
615.23	0.338
615.68	0.338
616.13	0.342
616.58	0.341
617.03	0.341
617.47	0.341
617.92	0.342
618.37	0.342
618.82	0.342
619.27	0.344
619.72	0.345
620.17	0.345
620.61	0.344
621.06	0.347
621.51	0.346
621.96	0.346
622.41	0.347
622.86	0.348
623.30	0.347
623.75	0.351
624.20	0.349
624.65	0.350
625.10	0.350
625.54	0.353
625.99	0.355
626.44	0.354
626.89	0.355
627.34	0.357
627.78	0.356
628.23	0.359
628.68	0.360
629.13	0.362
629.58	0.364
630.02	0.365
630.47	0.366
630.92	0.369
631.37	0.371
631.81	0.374
632.26	0.375
632.71	0.377
633.16	0.376
633.61	0.380
634.05	0.382
634.50	0.387
634.95	0.388
635.40	0.392
635.84	0.397
636.29	0.397
636.74	0.399
637.18	0.406
637.63	0.407
638.08	0.410
638.53	0.414
638.97	0.416
639.42	0.421
639.87	0.423
640.32	0.425
640.76	0.433
641.21	0.437
641.66	0.439
642.10	0.446
642.55	0.447
643.00	0.451
643.44	0.457
643.89	0.461
644.34	0.464
644.79	0.469
645.23	0.473
645.68	0.479
646.13	0.484
646.57	0.490
647.02	0.490
647.47	0.501
647.91	0.501
648.36	0.508
648.81	0.512
649.25	0.516
649.70	0.518
650.15	0.524
650.59	0.531
651.04	0.534
651.48	0.541
651.93	0.546
652.38	0.547
652.82	0.556
653.27	0.557
653.72	0.566
654.16	0.564
654.61	0.571
655.06	0.573
655.50	0.576
655.95	0.578
656.39	0.583
656.84	0.593
657.29	0.592
657.73	0.594
658.18	0.599
658.62	0.604
659.07	0.606
659.52	0.610
659.96	0.615
660.41	0.617
660.85	0.619
661.30	0.624
661.74	0.626
662.19	0.629
662.64	0.628
663.08	0.632
663.53	0.634
663.97	0.633
664.42	0.633
664.86	0.639
665.31	0.641
665.75	0.636
666.20	0.637
666.65	0.639
667.09	0.638
667.54	0.638
667.98	0.634
668.43	0.633
668.87	0.633
669.32	0.628
669.76	0.625
670.21	0.624
670.65	0.617
671.10	0.613
671.54	0.608
671.99	0.601
672.43	0.590
672.88	0.587
673.32	0.579
673.77	0.572
674.21	0.565
674.66	0.555
675.10	0.545
675.55	0.536
675.99	0.527
676.44	0.517
676.88	0.507
677.33	0.498
677.77	0.487
678.22	0.474
678.66	0.462
679.11	0.452
679.55	0.439
679.99	0.427
680.44	0.417
680.88	0.404
681.33	0.393
681.77	0.380
682.22	0.370
682.66	0.357
683.11	0.349
683.55	0.335
683.99	0.327
684.44	0.313
684.88	0.303
685.33	0.296
685.77	0.283
686.21	0.273
686.66	0.265
687.10	0.256
687.55	0.245
687.99	0.239
688.44	0.229
688.88	0.222
689.32	0.215
689.77	0.204
690.21	0.199
690.65	0.190
691.10	0.186
691.54	0.178
691.99	0.170
692.43	0.164
692.87	0.159
693.32	0.155
693.76	0.149
694.20	0.147
694.65	0.141
695.09	0.135
695.53	0.130
695.98	0.125
696.42	0.122
696.86	0.118
697.31	0.113
697.75	0.110
698.19	0.106
698.64	0.105
699.08	0.100
699.52	0.098
699.97	0.095
700.41	0.094
700.85	0.093
701.30	0.088
701.74	0.086
702.18	0.085
702.63	0.083
703.07	0.082
703.51	0.082
703.96	0.078
704.40	0.077
704.84	0.077
705.28	0.072
705.73	0.072
706.17	0.070
706.61	0.071
707.06	0.067
707.50	0.066
707.94	0.065
708.38	0.064
708.83	0.066
709.27	0.062
709.71	0.061
710.15	0.063
710.60	0.060
711.04	0.058
711.48	0.061
711.92	0.059
712.37	0.057
712.81	0.058
713.25	0.056
713.69	0.057
714.13	0.057
714.58	0.054
715.02	0.055
715.46	0.054
715.90	0.054
716.35	0.052
716.79	0.054
717.23	0.055
717.67	0.051
718.11	0.053
718.56	0.052
719.00	0.052
719.44	0.052
719.88	0.052
720.32	0.049
720.76	0.053
721.21	0.051
721.65	0.051
722.09	0.053
722.53	0.050
722.97	0.052
723.41	0.051
723.86	0.052
724.30	0.050
724.74	0.053
725.18	0.050
725.62	0.048
726.06	0.050
726.50	0.050
726.95	0.048
727.39	0.050
727.83	0.051
728.27	0.051
728.71	0.050
729.15	0.053
729.59	0.053
730.03	0.050
730.48	0.053
730.92	0.049
731.36	0.051
731.80	0.052
732.24	0.052
732.68	0.051
733.12	0.050
733.56	0.052
734.00	0.052
734.44	0.050
734.89	0.052
735.33	0.052
735.77	0.052
736.21	0.052
736.65	0.050
737.09	0.054
737.53	0.053
737.97	0.054
738.41	0.053
738.85	0.054
739.29	0.052
739.73	0.050
740.17	0.052
740.61	0.052
741.05	0.054
741.49	0.051
741.93	0.054
742.37	0.049
742.81	0.052
743.26	0.052
743.70	0.053
744.14	0.051
744.58	0.052
745.02	0.051
745.46	0.051
745.90	0.052
746.34	0.052
746.78	0.051
747.22	0.051
747.66	0.053
748.10	0.052
748.54	0.051
748.98	0.050
749.42	0.052
749.86	0.053
750.29	0.050
750.73	0.052
751.17	0.050
751.61	0.051
752.05	0.053
752.49	0.049
752.93	0.050
753.37	0.049
753.81	0.052
754.25	0.051
754.69	0.048
755.13	0.051
755.57	0.051
756.01	0.053
756.45	0.050
756.89	0.051
757.33	0.051
757.77	0.051
758.21	0.049
758.64	0.048
759.08	0.047
759.52	0.051
759.96	0.051
760.40	0.050
760.84	0.049
761.28	0.050
761.72	0.051
762.16	0.053
762.60	0.051
763.03	0.049
763.47	0.049
763.91	0.051
764.35	0.049
764.79	0.049
765.23	0.048
765.67	0.052
766.11	0.048
766.54	0.050
766.98	0.052
767.42	0.049
767.86	0.048
768.30	0.051
768.74	0.053
769.17	0.053
769.61	0.051
770.05	0.049
770.49	0.049
770.93	0.051
771.37	0.048
771.80	0.050
772.24	0.049
772.68	0.048
773.12	0.048
773.56	0.047
774.00	0.047
774.43	0.048
774.87	0.049
775.31	0.046
775.75	0.050
776.19	0.049
776.62	0.048
777.06	0.051
777.50	0.050
777.94	0.049
778.37	0.049
778.81	0.049
779.25	0.049
779.69	0.049
780.13	0.048
780.56	0.049
781.00	0.048
781.44	0.052
781.88	0.048
782.31	0.048
782.75	0.046
783.19	0.050
783.63	0.049
784.06	0.045
784.50	0.052
784.94	0.048
785.37	0.047
785.81	0.049
786.25	0.049
786.69	0.046
787.12	0.048
787.56	0.045
788.00	0.050
788.43	0.049
788.87	0.047
789.31	0.047
789.75	0.049
790.18	0.047
790.62	0.045
791.06	0.046
791.49	0.047
791.93	0.045
792.37	0.048
792.80	0.046
793.24	0.046
793.68	0.049
794.11	0.046
794.55	0.051
794.99	0.049
795.42	0.049
795.86	0.049
796.30	0.048
796.73	0.047
797.17	0.048
797.61	0.045
798.04	0.048
798.48	0.051
798.91	0.049
799.35	0.045
799.79	0.053
800.22	0.052
800.66	0.047
801.10	0.049
801.53	0.046
801.97	0.052
802.40	0.047
802.84	0.047
803.28	0.048
803.71	0.049
804.15	0.049
804.58	0.048
805.02	0.052
805.46	0.047
805.89	0.048
806.33	0.048
806.76	0.047
807.20	0.049
807.63	0.048
808.07	0.051
808.51	0.045
808.94	0.045
809.38	0.049
809.81	0.048
810.25	0.050
810.68	0.052
811.12	0.049
811.55	0.052
811.99	0.047
812.42	0.050
812.86	0.046
813.29	0.047
813.73	0.048
814.17	0.048
814.60	0.046
815.04	0.046
815.47	0.049
815.91	0.047
816.34	0.049
816.78	0.046
817.21	0.050
817.65	0.049
818.08	0.047
818.52	0.052
818.95	0.051
819.39	0.051
819.82	0.047
820.25	0.050
820.69	0.048
821.12	0.051
821.56	0.048
821.99	0.047
822.43	0.050
822.86	0.051
823.30	0.054
823.73	0.050
824.17	0.050
824.60	0.049
825.04	0.052
825.47	0.052
825.90	0.051
826.34	0.053
826.77	0.047
827.21	0.052
827.64	0.054
828.08	0.053
828.51	0.052
828.94	0.051
829.38	0.052
829.81	0.055
830.25	0.053
830.68	0.055
831.11	0.054
831.55	0.052
831.98	0.059
832.42	0.054
832.85	0.053
833.28	0.056
833.72	0.055
834.15	0.055
834.58	0.055
835.02	0.057
835.45	0.057
835.88	0.057
836.32	0.056
836.75	0.054
837.19	0.059
837.62	0.057
838.05	0.056
838.49	0.060
838.92	0.060
839.35	0.060
839.79	0.057
840.22	0.055
840.65	0.055
841.09	0.058
841.52	0.055
841.95	0.055
842.39	0.060
842.82	0.058
843.25	0.058
843.68	0.056
844.12	0.060
844.55	0.057
844.98	0.052
845.42	0.054
845.85	0.051
846.28	0.058
846.71	0.055
847.15	0.063
847.58	0.063
848.01	0.059
848.45	0.062
848.88	0.061
849.31	0.057
849.74	0.059
850.18	0.060
850.61	0.059
851.04	0.061
851.47	0.062
851.91	0.061
852.34	0.061
852.77	0.059
853.20	0.061
853.64	0.059
854.07	0.065
854.50	0.061
854.93	0.064
855.36	0.057
855.80	0.059
856.23	0.058
856.66	0.065
857.09	0.061
857.52	0.057
857.96	0.055
858.39	0.060
858.82	0.055
859.25	0.061
859.68	0.060
860.12	0.060
860.55	0.063
860.98	0.061
861.41	0.059
861.84	0.061
862.27	0.059
862.71	0.062
863.14	0.065
863.57	0.062
864.00	0.061
864.43	0.064
864.86	0.063
865.30	0.065
865.73	0.067
866.16	0.062
866.59	0.060
867.02	0.061
867.45	0.062
867.88	0.064
868.31	0.063
868.75	0.066
869.18	0.066
869.61	0.065
870.04	0.057
870.47	0.068
870.90	0.065
871.33	0.066
871.76	0.067
872.19	0.065
872.62	0.064
873.06	0.065
873.49	0.065
873.92	0.062
874.35	0.065
874.78	0.067
875.21	0.067
875.64	0.060
876.07	0.067
876.50	0.066
876.93	0.074
877.36	0.068
877.79	0.067
878.22	0.060
878.65	0.066
879.08	0.067
879.51	0.069
879.94	0.064
880.37	0.066
880.80	0.073
881.23	0.066
881.67	0.070
882.10	0.068
882.53	0.066
882.96	0.070
883.39	0.073
883.82	0.062
884.25	0.065
884.68	0.071
885.11	0.069
885.54	0.067
885.97	0.071
886.39	0.060
886.82	0.067
887.25	0.068
887.68	0.070
888.11	0.067
888.54	0.066
888.97	0.068
889.40	0.070
889.83	0.062
890.26	0.067
890.69	0.071
891.12	0.070
891.55	0.072
891.98	0.071
892.41	0.066
892.84	0.073
893.27	0.070
893.70	0.071
894.13	0.073
894.56	0.075
894.98	0.075
895.41	0.077
895.84	0.073
896.27	0.070
896.70	0.075
897.13	0.076
897.56	0.071
897.99	0.074
898.42	0.069
898.85	0.079
899.27	0.074
899.70	0.077
900.13	0.074
900.56	0.076
900.99	0.073
901.42	0.073
901.85	0.073
902.28	0.074
902.70	0.075
903.13	0.075
903.56	0.080
903.99	0.074
904.42	0.075
904.85	0.077
905.27	0.072
905.70	0.073
906.13	0.078
906.56	0.073
906.99	0.076
907.42	0.074
907.84	0.072
908.27	0.075
908.70	0.078
909.13	0.075
909.56	0.075
909.98	0.076
910.41	0.074
910.84	0.074
911.27	0.079
911.70	0.072
912.12	0.072
912.55	0.071
912.98	0.075
913.41	0.073
913.84	0.076
914.26	0.075
914.69	0.075
915.12	0.075
915.55	0.075
915.97	0.077
916.40	0.074
916.83	0.073
917.26	0.078
917.68	0.075
918.11	0.077
918.54	0.076
918.97	0.078
919.39	0.073
919.82	0.077
920.25	0.075
920.67	0.075
921.10	0.079
921.53	0.080
921.96	0.081
922.38	0.079
922.81	0.078
923.24	0.083
923.66	0.078
924.09	0.080
924.52	0.081
924.94	0.081
925.37	0.080
925.80	0.085
926.22	0.081
926.65	0.083
927.08	0.088
927.50	0.082
927.93	0.084
928.36	0.081
928.78	0.084
929.21	0.084
929.64	0.089
930.06	0.092
930.49	0.090
930.92	0.090
931.34	0.090
931.77	0.091
932.20	0.091
932.62	0.093
933.05	0.096
933.47	0.095
933.90	0.092
934.33	0.095
934.75	0.099
935.18	0.098
935.61	0.101
936.03	0.102
936.46	0.108
936.88	0.102
937.31	0.106
937.73	0.105
938.16	0.103
938.59	0.111
939.01	0.113
939.44	0.115
939.86	0.118
940.29	0.114
940.71	0.119
941.14	0.122
941.57	0.121
941.99	0.126
942.42	0.127
942.84	0.128
943.27	0.136
943.69	0.129
944.12	0.127
944.54	0.137
944.97	0.133
945.39	0.131
945.82	0.134
946.24	0.142
946.67	0.142
947.09	0.146
947.52	0.139
947.94	0.150
948.37	0.152
948.79	0.153
949.22	0.154
949.64	0.154
950.07	0.163
950.49	0.160
950.92	0.163
951.34	0.161
951.77	0.164
952.19	0.166
952.62	0.177
953.04	0.179
953.47	0.175
953.89	0.181
954.32	0.188
954.74	0.184
955.17	0.187
955.59	0.195
956.01	0.193
956.44	0.199
956.86	0.204
957.29	0.208
957.71	0.208
958.14	0.205
958.56	0.210
958.98	0.218
959.41	0.215
959.83	0.214
960.26	0.217
960.68	0.220
961.10	0.219
961.53	0.218
961.95	0.223
962.38	0.220
962.80	0.223
963.22	0.225
963.65	0.225
964.07	0.227
964.50	0.235
964.92	0.233
965.34	0.232
965.77	0.228
966.19	0.230
966.61	0.236
967.04	0.237
967.46	0.237
967.88	0.239
968.31	0.234
968.73	0.233
969.15	0.229
969.58	0.239
970.00	0.230
970.42	0.236
970.85	0.229
971.27	0.237
971.69	0.236
972.12	0.239
972.54	0.242
972.96	0.239
973.39	0.248
973.81	0.243
974.23	0.241
974.65	0.240
975.08	0.243
975.50	0.242
975.92	0.239
976.35	0.242
976.77	0.239
977.19	0.242
977.61	0.242
978.04	0.233
978.46	0.238
978.88	0.242
979.30	0.241
979.73	0.240
980.15	0.245
980.57	0.247
980.99	0.245
981.42	0.240
981.84	0.244
982.26	0.242
982.68	0.237
983.11	0.239
983.53	0.241
983.95	0.244
984.37	0.240
984.79	0.242
985.22	0.240
985.64	0.243
986.06	0.238
986.48	0.241
986.90	0.241
987.33	0.235
987.75	0.234
988.17	0.237
988.59	0.238
989.01	0.232
989.43	0.233
989.86	0.232
990.28	0.232
990.70	0.231
991.12	0.230
991.54	0.238
991.96	0.230
992.39	0.232
992.81	0.226
993.23	0.230
993.65	0.228
994.07	0.230
994.49	0.227
994.91	0.231
995.34	0.218
995.76	0.224
996.18	0.229
996.60	0.223
997.02	0.225
997.44	0.220
997.86	0.224
998.28	0.219
998.70	0.218
999.12	0.223
999.55	0.217
999.97	0.214
1000.39	0.216
1000.81	0.222
1001.23	0.208
1001.65	0.213
1002.07	0.218
1002.49	0.212
1002.91	0.205
1003.33	0.211
1003.75	0.211
1004.17	0.214
1004.59	0.204
1005.01	0.209
1005.43	0.210
1005.85	0.203
1006.28	0.201
1006.70	0.202
1007.12	0.202
1007.54	0.202
1007.96	0.200
1008.38	0.203
1008.80	0.198
1009.22	0.194
1009.64	0.198
1010.06	0.199
1010.48	0.201
1010.90	0.204
1011.32	0.195
1011.74	0.187
1012.16	0.192
1012.58	0.197
1013.00	0.191
1013.42	0.181
1013.84	0.192
1014.26	0.191
1014.67	0.188
1015.09	0.180
1015.51	0.182
1015.93	0.187
1016.35	0.177
1016.77	0.186
1017.19	0.183
1017.61	0.186
1018.03	0.183
1018.45	0.180
1018.87	0.181
1019.29	0.187
1019.71	0.169
1020.13	0.184
1020.55	0.175
1020.97	0.164
1021.38	0.174
1021.80	0.168
1022.22	0.170
1022.64	0.160
1023.06	0.168
1023.48	0.165
1023.90	0.168
1024.32	0.156
1024.74	0.171
1025.15	0.164
1025.57	0.153
1025.99	0.159
1026.41	0.168
1026.83	0.152
1027.25	0.156
1027.67	0.167
1028.08	0.154
1028.50	0.166
1028.92	0.166
1029.34	0.162
1029.76	0.169
1030.18	0.155
1030.60	0.159
1031.01	0.164
1031.43	0.156
1031.85	0.151
1032.27	0.162
1032.69	0.148
1033.10	0.159
1033.52	0.150
1033.94	0.149
1034.36	0.152
1034.78	0.147
1035.19	0.158
1035.61	0.147
1036.03	0.148
1036.45	0.129
1036.87	0.146
1037.28	0.141
1037.70	0.135
1038.12	0.137
1038.54	0.136
1038.95	0.136
1039.37	0.133
1039.79	0.142
1040.21	0.142
1040.62	0.141
1041.04	0.131
1041.46	0.137
1041.88	0.123
1042.29	0.134
1042.71	0.133
1043.13	0.145
1043.55	0.134
1043.96	0.127
1044.38	0.144
1044.80	0.147
1045.21	0.127
1045.63	0.129
1046.05	0.122
1046.47	0.122
1046.88	0.112
1047.30	0.139
1047.72	0.134
1048.13	0.125
1048.55	0.111
1048.97	0.130
1049.38	0.148
1049.80	0.115
1050.22	0.137
1050.63	0.115
1051.05	0.139
1051.47	0.124
1051.88	0.119
1052.30	0.142
1052.72	0.138
1053.13	0.122
1053.55	0.144
1053.97	0.154
1054.38	0.128
1054.80	0.137
1055.21	0.129
1055.63	0.107
1056.05	0.121
1056.46	0.149
1056.88	0.123
1057.29	0.124
1057.71	0.123
1058.13	0.139
1058.54	0.182
1058.96	0.084
1059.37	0.125
1059.79	0.151
1060.21	0.119
1060.62	0.097
1061.04	0.130
1061.45	0.153
1061.87	0.125
1062.28	0.115
1062.70	0.119
1063.12	0.150
1063.53	0.096
1063.95	0.134
1064.36	0.209
1064.78	0.147
1065.19	0.110
1065.61	0.177
1066.02	0.188
1066.44	0.112
1066.85	0.153
1067.27	0.223
1067.68	0.156
1068.10	0.071
1068.51	0.192
1068.93	0.203
1069.35	0.305
1069.76	0.222
1070.17	0.209
1070.59	0.208
1071.00	0.176
1071.42	0.179
1071.83	0.241
1072.25	0.250
1072.66	0.134
1073.08	0.331
1073.49	0.359
1073.91	0.169
1074.32	0.164
1074.74	0.226
1075.15	0.247
1075.57	0.082
1075.98	0.318
1076.40	0.139
1076.81	0.223
1077.22	0.155
1077.64	0.350
1078.05	0.374
1078.47	0.220
1078.88	0.356
1079.30	0.439
1079.71	0.381
1080.12	0.205
1080.54	0.877
1080.95	0.376
1081.37	0.710
1081.78	0.160
1082.19	0.931
1082.61	0.777
1083.02	0.308
1083.44	0.613
1083.85	0.265
1084.26	0.641
1084.68	0.455
1085.09	0.499
1085.50	0.412
1085.92	1.060
1086.33	0.513
1086.74	0.696
1087.16	-0.000
1087.57	0.318
1087.98	0.504
1088.40	0.533
1088.81	0.514
1089.22	-0.000
1089.64	0.887
1090.05	0.567
1090.46	-0.000
1090.88	-0.000
1091.29	0.270
1091.70	-0.000
1092.12	0.264
1092.53	-0.000
1092.94	-0.000
1093.36	-0.000
1093.77	0.602
1094.18	0.724
1094.59	-0.000
1095.01	0.762
1095.42	0.513
1095.83	0.769
1096.25	-0.000
1096.66	-0.000
1097.07	-0.000
1097.48	-0.000
1097.90	-0.000
1098.31	0.925
1098.72	-0.000
1099.13	-0.000
>>>>>End Processed Spectral Data<<<<<
