SpectraSuite Data File
++++++++++++++++++++++++++++++++++++
Date: Sun Apr 24 14:53:30 CEST 2016
User: spectrasuite
Dark Spectrum Present: Yes
Reference Spectrum Present: Yes
Number of Sampled Component Spectra: 1
Spectrometers: HR+C0708
Integration Time (usec): 1000 (HR+C0708)
Spectra Averaged: 10 (HR+C0708)
Boxcar Smoothing: 0 (HR+C0708)
Correct for Electrical Dark: No (HR+C0708)
Strobe/Lamp Enabled: No (HR+C0708)
Correct for Detector Non-linearity: No (HR+C0708)
Correct for Stray Light: No (HR+C0708)
Number of Pixels in Processed Spectrum: 2048
>>>>>Begin Processed Spectral Data<<<<<
188.76	-0.000
189.23	-0.000
189.70	-0.000
190.17	-0.000
190.64	-0.000
191.12	-0.000
191.59	-0.000
192.06	-0.000
192.53	-0.000
193.01	-0.000
193.48	-0.000
193.95	-0.000
194.42	-0.000
194.90	-0.000
195.37	-0.000
195.84	-0.000
196.31	-0.000
196.78	-0.000
197.26	-0.000
197.73	-0.000
198.20	-0.000
198.67	-0.000
199.14	-0.000
199.62	-0.000
200.09	-0.000
200.56	-0.000
201.03	-0.000
201.50	-0.000
201.97	-0.000
202.45	-0.000
202.92	0.843
203.39	0.931
203.86	-0.000
204.33	1.627
204.80	-0.000
205.28	1.257
205.75	-0.000
206.22	-0.000
206.69	2.069
207.16	-0.000
207.63	1.987
208.11	0.899
208.58	0.879
209.05	1.133
209.52	1.235
209.99	1.207
210.46	1.435
210.93	-0.000
211.41	1.039
211.88	1.121
212.35	-0.000
212.82	-0.000
213.29	0.963
213.76	1.042
214.23	-0.000
214.70	1.604
215.18	1.850
215.65	-0.000
216.12	1.675
216.59	1.022
217.06	-0.000
217.53	1.438
218.00	0.919
218.47	0.800
218.94	-0.000
219.41	-0.000
219.89	1.119
220.36	-0.000
220.83	-0.000
221.30	-0.000
221.77	1.558
222.24	-0.000
222.71	-0.000
223.18	-0.000
223.65	1.675
224.12	-0.000
224.59	-0.000
225.06	1.689
225.54	2.337
226.01	1.435
226.48	1.917
226.95	1.913
227.42	1.930
227.89	-0.000
228.36	1.225
228.83	1.965
229.30	2.241
229.77	2.031
230.24	1.686
230.71	-0.000
231.18	-0.000
231.65	2.356
232.12	1.761
232.59	1.949
233.06	-0.000
233.53	2.275
234.00	1.970
234.47	-0.000
234.94	-0.000
235.41	2.167
235.88	-0.000
236.35	-0.000
236.82	2.638
237.29	2.274
237.76	2.498
238.23	2.651
238.70	2.586
239.17	2.329
239.64	-0.000
240.11	-0.000
240.58	3.186
241.05	-0.000
241.52	2.809
241.99	-0.000
242.46	2.576
242.93	-0.000
243.40	3.026
243.87	2.579
244.34	2.451
244.81	3.151
245.28	-0.000
245.75	3.293
246.22	3.463
246.69	-0.000
247.16	3.224
247.63	2.848
248.10	3.216
248.57	3.553
249.04	3.750
249.51	4.006
249.98	-0.000
250.45	2.973
250.92	2.774
251.39	-0.000
251.85	-0.000
252.32	-0.000
252.79	-0.000
253.26	-0.000
253.73	-0.000
254.20	2.927
254.67	3.030
255.14	3.339
255.61	3.006
256.08	-0.000
256.55	-0.000
257.02	2.875
257.49	3.212
257.95	3.114
258.42	3.611
258.89	3.075
259.36	3.808
259.83	-0.000
260.30	-0.000
260.77	-0.000
261.24	2.962
261.71	3.701
262.17	3.348
262.64	2.912
263.11	3.931
263.58	-0.000
264.05	3.265
264.52	3.288
264.99	3.262
265.46	3.395
265.92	3.349
266.39	2.759
266.86	3.909
267.33	3.092
267.80	2.690
268.27	3.455
268.74	3.807
269.20	3.896
269.67	2.946
270.14	3.095
270.61	3.213
271.08	3.220
271.55	2.741
272.01	3.059
272.48	2.922
272.95	2.796
273.42	2.957
273.89	3.422
274.36	2.900
274.82	2.839
275.29	2.989
275.76	2.978
276.23	2.629
276.70	2.754
277.16	3.013
277.63	2.586
278.10	2.602
278.57	2.717
279.04	2.636
279.50	2.753
279.97	2.614
280.44	2.566
280.91	2.555
281.38	2.597
281.84	2.769
282.31	2.873
282.78	2.706
283.25	2.586
283.72	2.517
284.18	2.581
284.65	2.568
285.12	2.426
285.59	2.422
286.05	2.613
286.52	2.517
286.99	2.488
287.46	2.565
287.92	2.503
288.39	2.398
288.86	2.504
289.33	2.451
289.79	2.459
290.26	2.484
290.73	2.427
291.20	2.374
291.66	2.444
292.13	2.376
292.60	2.445
293.07	2.362
293.53	2.271
294.00	2.409
294.47	2.388
294.93	2.334
295.40	2.393
295.87	2.356
296.34	2.384
296.80	2.271
297.27	2.328
297.74	2.257
298.20	2.271
298.67	2.197
299.14	2.303
299.60	2.268
300.07	2.233
300.54	2.225
301.01	2.208
301.47	2.146
301.94	2.175
302.41	2.223
302.87	2.210
303.34	2.216
303.81	2.144
304.27	2.205
304.74	2.085
305.21	2.122
305.67	2.163
306.14	2.127
306.61	2.165
307.07	2.124
307.54	2.165
308.01	2.128
308.47	2.094
308.94	2.144
309.40	2.102
309.87	2.067
310.34	2.055
310.80	2.180
311.27	2.080
311.74	2.062
312.20	2.101
312.67	2.062
313.13	2.062
313.60	2.085
314.07	2.058
314.53	2.045
315.00	1.996
315.47	2.045
315.93	2.057
316.40	2.002
316.86	2.010
317.33	1.999
317.80	2.032
318.26	2.019
318.73	1.997
319.19	2.006
319.66	1.963
320.13	1.952
320.59	1.945
321.06	1.959
321.52	1.937
321.99	1.934
322.45	1.938
322.92	1.902
323.39	1.903
323.85	1.916
324.32	1.912
324.78	1.898
325.25	1.886
325.71	1.852
326.18	1.853
326.64	1.883
327.11	1.851
327.58	1.844
328.04	1.798
328.51	1.829
328.97	1.806
329.44	1.795
329.90	1.776
330.37	1.756
330.83	1.730
331.30	1.785
331.76	1.714
332.23	1.695
332.69	1.704
333.16	1.670
333.62	1.645
334.09	1.638
334.56	1.615
335.02	1.596
335.49	1.575
335.95	1.561
336.42	1.536
336.88	1.493
337.35	1.481
337.81	1.474
338.28	1.448
338.74	1.428
339.20	1.404
339.67	1.376
340.13	1.345
340.60	1.319
341.06	1.292
341.53	1.272
341.99	1.248
342.46	1.211
342.92	1.190
343.39	1.162
343.85	1.138
344.32	1.122
344.78	1.104
345.25	1.089
345.71	1.059
346.17	1.034
346.64	1.019
347.10	0.990
347.57	0.958
348.03	0.937
348.50	0.919
348.96	0.889
349.43	0.875
349.89	0.864
350.35	0.843
350.82	0.825
351.28	0.817
351.75	0.799
352.21	0.782
352.67	0.761
353.14	0.760
353.60	0.744
354.07	0.736
354.53	0.709
355.00	0.706
355.46	0.697
355.92	0.677
356.39	0.675
356.85	0.663
357.31	0.652
357.78	0.651
358.24	0.634
358.71	0.627
359.17	0.621
359.63	0.615
360.10	0.614
360.56	0.606
361.03	0.600
361.49	0.598
361.95	0.590
362.42	0.585
362.88	0.580
363.34	0.576
363.81	0.573
364.27	0.571
364.73	0.570
365.20	0.564
365.66	0.561
366.12	0.558
366.59	0.557
367.05	0.554
367.51	0.550
367.98	0.546
368.44	0.549
368.90	0.547
369.37	0.542
369.83	0.542
370.29	0.537
370.76	0.538
371.22	0.536
371.68	0.530
372.15	0.529
372.61	0.525
373.07	0.525
373.54	0.522
374.00	0.522
374.46	0.519
374.92	0.522
375.39	0.516
375.85	0.515
376.31	0.512
376.78	0.513
377.24	0.506
377.70	0.509
378.16	0.504
378.63	0.505
379.09	0.501
379.55	0.506
380.01	0.500
380.48	0.498
380.94	0.499
381.40	0.494
381.87	0.493
382.33	0.492
382.79	0.491
383.25	0.490
383.72	0.490
384.18	0.488
384.64	0.482
385.10	0.484
385.56	0.482
386.03	0.478
386.49	0.479
386.95	0.478
387.41	0.474
387.88	0.476
388.34	0.471
388.80	0.468
389.26	0.470
389.72	0.472
390.19	0.468
390.65	0.466
391.11	0.466
391.57	0.465
392.04	0.465
392.50	0.459
392.96	0.457
393.42	0.455
393.88	0.460
394.34	0.455
394.81	0.456
395.27	0.451
395.73	0.452
396.19	0.451
396.65	0.449
397.12	0.446
397.58	0.444
398.04	0.445
398.50	0.444
398.96	0.440
399.42	0.442
399.89	0.441
400.35	0.441
400.81	0.435
401.27	0.437
401.73	0.438
402.19	0.433
402.65	0.432
403.12	0.430
403.58	0.429
404.04	0.431
404.50	0.426
404.96	0.425
405.42	0.427
405.88	0.426
406.34	0.424
406.81	0.423
407.27	0.423
407.73	0.419
408.19	0.419
408.65	0.417
409.11	0.415
409.57	0.418
410.03	0.417
410.49	0.414
410.96	0.412
411.42	0.414
411.88	0.412
412.34	0.409
412.80	0.410
413.26	0.405
413.72	0.406
414.18	0.404
414.64	0.404
415.10	0.410
415.56	0.407
416.02	0.403
416.48	0.401
416.95	0.397
417.41	0.394
417.87	0.394
418.33	0.397
418.79	0.394
419.25	0.390
419.71	0.392
420.17	0.392
420.63	0.390
421.09	0.391
421.55	0.383
422.01	0.387
422.47	0.387
422.93	0.387
423.39	0.386
423.85	0.386
424.31	0.381
424.77	0.380
425.23	0.384
425.69	0.381
426.15	0.377
426.61	0.379
427.07	0.374
427.53	0.378
427.99	0.374
428.45	0.374
428.91	0.374
429.37	0.372
429.83	0.372
430.29	0.370
430.75	0.372
431.21	0.370
431.67	0.369
432.13	0.369
432.59	0.361
433.05	0.366
433.51	0.363
433.97	0.363
434.43	0.364
434.89	0.364
435.35	0.364
435.81	0.361
436.27	0.358
436.73	0.357
437.19	0.359
437.65	0.359
438.11	0.357
438.57	0.359
439.03	0.359
439.48	0.356
439.94	0.350
440.40	0.350
440.86	0.354
441.32	0.351
441.78	0.353
442.24	0.351
442.70	0.351
443.16	0.346
443.62	0.347
444.08	0.346
444.54	0.345
444.99	0.344
445.45	0.345
445.91	0.340
446.37	0.343
446.83	0.342
447.29	0.339
447.75	0.340
448.21	0.342
448.67	0.340
449.12	0.335
449.58	0.336
450.04	0.338
450.50	0.334
450.96	0.338
451.42	0.328
451.88	0.331
452.34	0.335
452.79	0.332
453.25	0.334
453.71	0.331
454.17	0.328
454.63	0.331
455.09	0.331
455.55	0.330
456.00	0.327
456.46	0.326
456.92	0.326
457.38	0.326
457.84	0.322
458.30	0.322
458.75	0.321
459.21	0.320
459.67	0.325
460.13	0.320
460.59	0.320
461.04	0.317
461.50	0.321
461.96	0.318
462.42	0.315
462.88	0.315
463.33	0.316
463.79	0.313
464.25	0.316
464.71	0.314
465.17	0.314
465.62	0.312
466.08	0.314
466.54	0.313
467.00	0.310
467.46	0.311
467.91	0.309
468.37	0.308
468.83	0.309
469.29	0.308
469.74	0.309
470.20	0.306
470.66	0.305
471.12	0.303
471.57	0.307
472.03	0.303
472.49	0.301
472.95	0.303
473.40	0.299
473.86	0.298
474.32	0.299
474.78	0.299
475.23	0.300
475.69	0.301
476.15	0.298
476.60	0.298
477.06	0.298
477.52	0.296
477.98	0.295
478.43	0.295
478.89	0.295
479.35	0.292
479.80	0.294
480.26	0.293
480.72	0.291
481.18	0.292
481.63	0.290
482.09	0.292
482.55	0.288
483.00	0.288
483.46	0.289
483.92	0.287
484.37	0.287
484.83	0.286
485.29	0.286
485.74	0.286
486.20	0.284
486.66	0.286
487.11	0.285
487.57	0.282
488.03	0.283
488.48	0.281
488.94	0.279
489.40	0.281
489.85	0.284
490.31	0.280
490.77	0.280
491.22	0.279
491.68	0.278
492.13	0.278
492.59	0.277
493.05	0.277
493.50	0.276
493.96	0.277
494.42	0.275
494.87	0.274
495.33	0.272
495.78	0.273
496.24	0.276
496.70	0.274
497.15	0.273
497.61	0.272
498.06	0.271
498.52	0.271
498.98	0.270
499.43	0.271
499.89	0.269
500.34	0.266
500.80	0.268
501.25	0.269
501.71	0.267
502.17	0.265
502.62	0.268
503.08	0.267
503.53	0.265
503.99	0.262
504.44	0.265
504.90	0.265
505.36	0.262
505.81	0.263
506.27	0.263
506.72	0.262
507.18	0.262
507.63	0.261
508.09	0.260
508.54	0.258
509.00	0.260
509.45	0.260
509.91	0.257
510.36	0.258
510.82	0.256
511.27	0.258
511.73	0.257
512.19	0.254
512.64	0.253
513.10	0.257
513.55	0.257
514.01	0.250
514.46	0.253
514.92	0.253
515.37	0.251
515.83	0.253
516.28	0.251
516.73	0.251
517.19	0.252
517.64	0.249
518.10	0.252
518.55	0.250
519.01	0.248
519.46	0.247
519.92	0.249
520.37	0.245
520.83	0.247
521.28	0.248
521.74	0.248
522.19	0.247
522.65	0.246
523.10	0.248
523.55	0.244
524.01	0.245
524.46	0.244
524.92	0.242
525.37	0.241
525.83	0.241
526.28	0.243
526.73	0.241
527.19	0.245
527.64	0.243
528.10	0.243
528.55	0.240
529.01	0.241
529.46	0.241
529.91	0.239
530.37	0.239
530.82	0.238
531.28	0.236
531.73	0.235
532.18	0.235
532.64	0.237
533.09	0.234
533.54	0.235
534.00	0.233
534.45	0.237
534.91	0.234
535.36	0.234
535.81	0.233
536.27	0.231
536.72	0.233
537.17	0.232
537.63	0.232
538.08	0.231
538.54	0.233
538.99	0.231
539.44	0.231
539.90	0.231
540.35	0.227
540.80	0.228
541.26	0.229
541.71	0.231
542.16	0.229
542.62	0.226
543.07	0.226
543.52	0.227
543.98	0.226
544.43	0.225
544.88	0.226
545.34	0.228
545.79	0.223
546.24	0.226
546.69	0.225
547.15	0.224
547.60	0.224
548.05	0.225
548.51	0.220
548.96	0.222
549.41	0.223
549.86	0.221
550.32	0.223
550.77	0.221
551.22	0.220
551.68	0.218
552.13	0.218
552.58	0.217
553.03	0.219
553.49	0.218
553.94	0.218
554.39	0.218
554.84	0.219
555.30	0.215
555.75	0.216
556.20	0.215
556.65	0.214
557.11	0.215
557.56	0.215
558.01	0.215
558.46	0.216
558.92	0.214
559.37	0.215
559.82	0.214
560.27	0.212
560.72	0.213
561.18	0.212
561.63	0.211
562.08	0.210
562.53	0.211
562.99	0.211
563.44	0.212
563.89	0.210
564.34	0.209
564.79	0.211
565.25	0.208
565.70	0.208
566.15	0.207
566.60	0.209
567.05	0.208
567.50	0.207
567.96	0.206
568.41	0.204
568.86	0.204
569.31	0.203
569.76	0.204
570.21	0.203
570.67	0.205
571.12	0.205
571.57	0.203
572.02	0.203
572.47	0.204
572.92	0.202
573.37	0.202
573.83	0.201
574.28	0.201
574.73	0.201
575.18	0.200
575.63	0.200
576.08	0.198
576.53	0.200
576.98	0.199
577.44	0.195
577.89	0.200
578.34	0.197
578.79	0.198
579.24	0.198
579.69	0.198
580.14	0.196
580.59	0.195
581.04	0.192
581.49	0.195
581.95	0.195
582.40	0.194
582.85	0.195
583.30	0.193
583.75	0.191
584.20	0.193
584.65	0.193
585.10	0.193
585.55	0.192
586.00	0.192
586.45	0.192
586.90	0.192
587.35	0.192
587.80	0.191
588.25	0.192
588.71	0.191
589.16	0.190
589.61	0.190
590.06	0.188
590.51	0.191
590.96	0.189
591.41	0.189
591.86	0.189
592.31	0.187
592.76	0.187
593.21	0.188
593.66	0.188
594.11	0.187
594.56	0.185
595.01	0.189
595.46	0.187
595.91	0.187
596.36	0.186
596.81	0.186
597.26	0.185
597.71	0.184
598.16	0.184
598.61	0.185
599.06	0.185
599.51	0.185
599.96	0.186
600.41	0.184
600.86	0.183
601.31	0.184
601.76	0.186
602.21	0.185
602.65	0.183
603.10	0.181
603.55	0.183
604.00	0.182
604.45	0.181
604.90	0.182
605.35	0.180
605.80	0.180
606.25	0.182
606.70	0.182
607.15	0.180
607.60	0.179
608.05	0.178
608.50	0.179
608.95	0.177
609.39	0.179
609.84	0.180
610.29	0.177
610.74	0.177
611.19	0.177
611.64	0.178
612.09	0.178
612.54	0.177
612.99	0.178
613.44	0.176
613.88	0.178
614.33	0.176
614.78	0.176
615.23	0.175
615.68	0.174
616.13	0.177
616.58	0.175
617.03	0.174
617.47	0.175
617.92	0.175
618.37	0.173
618.82	0.173
619.27	0.172
619.72	0.173
620.17	0.170
620.61	0.170
621.06	0.171
621.51	0.169
621.96	0.170
622.41	0.171
622.86	0.171
623.30	0.170
623.75	0.172
624.20	0.172
624.65	0.170
625.10	0.170
625.54	0.170
625.99	0.168
626.44	0.169
626.89	0.169
627.34	0.170
627.78	0.167
628.23	0.167
628.68	0.167
629.13	0.167
629.58	0.167
630.02	0.167
630.47	0.166
630.92	0.166
631.37	0.164
631.81	0.167
632.26	0.164
632.71	0.164
633.16	0.165
633.61	0.166
634.05	0.164
634.50	0.163
634.95	0.165
635.40	0.166
635.84	0.165
636.29	0.165
636.74	0.163
637.18	0.166
637.63	0.163
638.08	0.163
638.53	0.163
638.97	0.163
639.42	0.163
639.87	0.164
640.32	0.162
640.76	0.163
641.21	0.163
641.66	0.162
642.10	0.163
642.55	0.159
643.00	0.160
643.44	0.160
643.89	0.161
644.34	0.160
644.79	0.159
645.23	0.161
645.68	0.162
646.13	0.160
646.57	0.160
647.02	0.157
647.47	0.161
647.91	0.158
648.36	0.158
648.81	0.159
649.25	0.158
649.70	0.157
650.15	0.159
650.59	0.158
651.04	0.158
651.48	0.161
651.93	0.158
652.38	0.154
652.82	0.156
653.27	0.156
653.72	0.158
654.16	0.155
654.61	0.157
655.06	0.156
655.50	0.154
655.95	0.152
656.39	0.148
656.84	0.152
657.29	0.155
657.73	0.154
658.18	0.155
658.62	0.156
659.07	0.153
659.52	0.155
659.96	0.154
660.41	0.156
660.85	0.152
661.30	0.153
661.74	0.153
662.19	0.152
662.64	0.152
663.08	0.153
663.53	0.152
663.97	0.151
664.42	0.154
664.86	0.154
665.31	0.151
665.75	0.150
666.20	0.153
666.65	0.151
667.09	0.150
667.54	0.151
667.98	0.149
668.43	0.149
668.87	0.150
669.32	0.151
669.76	0.149
670.21	0.153
670.65	0.146
671.10	0.149
671.54	0.147
671.99	0.147
672.43	0.149
672.88	0.148
673.32	0.148
673.77	0.147
674.21	0.148
674.66	0.149
675.10	0.147
675.55	0.147
675.99	0.147
676.44	0.148
676.88	0.146
677.33	0.148
677.77	0.146
678.22	0.146
678.66	0.145
679.11	0.146
679.55	0.148
679.99	0.145
680.44	0.147
680.88	0.145
681.33	0.144
681.77	0.145
682.22	0.147
682.66	0.144
683.11	0.144
683.55	0.145
683.99	0.145
684.44	0.143
684.88	0.143
685.33	0.144
685.77	0.145
686.21	0.142
686.66	0.144
687.10	0.143
687.55	0.143
687.99	0.145
688.44	0.145
688.88	0.142
689.32	0.142
689.77	0.141
690.21	0.143
690.65	0.144
691.10	0.142
691.54	0.141
691.99	0.143
692.43	0.142
692.87	0.139
693.32	0.141
693.76	0.141
694.20	0.143
694.65	0.141
695.09	0.143
695.53	0.141
695.98	0.141
696.42	0.141
696.86	0.140
697.31	0.137
697.75	0.138
698.19	0.139
698.64	0.139
699.08	0.138
699.52	0.139
699.97	0.140
700.41	0.140
700.85	0.141
701.30	0.138
701.74	0.139
702.18	0.137
702.63	0.138
703.07	0.138
703.51	0.139
703.96	0.137
704.40	0.138
704.84	0.138
705.28	0.138
705.73	0.137
706.17	0.139
706.61	0.136
707.06	0.136
707.50	0.137
707.94	0.136
708.38	0.135
708.83	0.138
709.27	0.137
709.71	0.137
710.15	0.138
710.60	0.136
711.04	0.136
711.48	0.140
711.92	0.138
712.37	0.135
712.81	0.137
713.25	0.137
713.69	0.136
714.13	0.138
714.58	0.135
715.02	0.136
715.46	0.136
715.90	0.132
716.35	0.135
716.79	0.134
717.23	0.137
717.67	0.136
718.11	0.136
718.56	0.135
719.00	0.135
719.44	0.136
719.88	0.134
720.32	0.134
720.76	0.135
721.21	0.134
721.65	0.135
722.09	0.136
722.53	0.135
722.97	0.137
723.41	0.136
723.86	0.139
724.30	0.136
724.74	0.135
725.18	0.136
725.62	0.133
726.06	0.136
726.50	0.132
726.95	0.134
727.39	0.135
727.83	0.134
728.27	0.136
728.71	0.135
729.15	0.134
729.59	0.136
730.03	0.133
730.48	0.135
730.92	0.134
731.36	0.134
731.80	0.133
732.24	0.136
732.68	0.135
733.12	0.133
733.56	0.133
734.00	0.134
734.44	0.136
734.89	0.136
735.33	0.136
735.77	0.139
736.21	0.136
736.65	0.133
737.09	0.135
737.53	0.137
737.97	0.135
738.41	0.135
738.85	0.137
739.29	0.135
739.73	0.133
740.17	0.137
740.61	0.136
741.05	0.136
741.49	0.137
741.93	0.133
742.37	0.133
742.81	0.135
743.26	0.136
743.70	0.134
744.14	0.135
744.58	0.134
745.02	0.135
745.46	0.133
745.90	0.134
746.34	0.135
746.78	0.136
747.22	0.134
747.66	0.135
748.10	0.136
748.54	0.130
748.98	0.132
749.42	0.133
749.86	0.131
750.29	0.132
750.73	0.132
751.17	0.130
751.61	0.129
752.05	0.135
752.49	0.131
752.93	0.130
753.37	0.131
753.81	0.130
754.25	0.129
754.69	0.130
755.13	0.129
755.57	0.131
756.01	0.131
756.45	0.133
756.89	0.131
757.33	0.128
757.77	0.131
758.21	0.131
758.64	0.129
759.08	0.127
759.52	0.131
759.96	0.131
760.40	0.130
760.84	0.128
761.28	0.129
761.72	0.129
762.16	0.130
762.60	0.127
763.03	0.126
763.47	0.128
763.91	0.130
764.35	0.131
764.79	0.126
765.23	0.123
765.67	0.128
766.11	0.124
766.54	0.125
766.98	0.127
767.42	0.126
767.86	0.124
768.30	0.129
768.74	0.131
769.17	0.128
769.61	0.127
770.05	0.127
770.49	0.130
770.93	0.127
771.37	0.126
771.80	0.124
772.24	0.128
772.68	0.123
773.12	0.128
773.56	0.126
774.00	0.126
774.43	0.124
774.87	0.125
775.31	0.124
775.75	0.123
776.19	0.126
776.62	0.125
777.06	0.128
777.50	0.124
777.94	0.123
778.37	0.123
778.81	0.125
779.25	0.126
779.69	0.123
780.13	0.124
780.56	0.121
781.00	0.124
781.44	0.124
781.88	0.126
782.31	0.122
782.75	0.124
783.19	0.126
783.63	0.120
784.06	0.121
784.50	0.126
784.94	0.122
785.37	0.120
785.81	0.126
786.25	0.124
786.69	0.121
787.12	0.123
787.56	0.121
788.00	0.122
788.43	0.124
788.87	0.123
789.31	0.123
789.75	0.123
790.18	0.120
790.62	0.122
791.06	0.122
791.49	0.123
791.93	0.121
792.37	0.124
792.80	0.124
793.24	0.120
793.68	0.122
794.11	0.120
794.55	0.124
794.99	0.122
795.42	0.121
795.86	0.124
796.30	0.121
796.73	0.121
797.17	0.122
797.61	0.119
798.04	0.121
798.48	0.122
798.91	0.120
799.35	0.119
799.79	0.125
800.22	0.121
800.66	0.119
801.10	0.117
801.53	0.119
801.97	0.125
802.40	0.122
802.84	0.120
803.28	0.118
803.71	0.120
804.15	0.117
804.58	0.119
805.02	0.123
805.46	0.122
805.89	0.119
806.33	0.119
806.76	0.118
807.20	0.123
807.63	0.117
808.07	0.125
808.51	0.119
808.94	0.120
809.38	0.118
809.81	0.119
810.25	0.122
810.68	0.120
811.12	0.117
811.55	0.122
811.99	0.120
812.42	0.121
812.86	0.117
813.29	0.118
813.73	0.117
814.17	0.115
814.60	0.118
815.04	0.118
815.47	0.116
815.91	0.115
816.34	0.123
816.78	0.118
817.21	0.121
817.65	0.116
818.08	0.116
818.52	0.118
818.95	0.119
819.39	0.117
819.82	0.118
820.25	0.120
820.69	0.115
821.12	0.119
821.56	0.116
821.99	0.117
822.43	0.116
822.86	0.119
823.30	0.121
823.73	0.118
824.17	0.118
824.60	0.113
825.04	0.116
825.47	0.115
825.90	0.118
826.34	0.120
826.77	0.119
827.21	0.120
827.64	0.122
828.08	0.117
828.51	0.115
828.94	0.118
829.38	0.116
829.81	0.123
830.25	0.119
830.68	0.120
831.11	0.118
831.55	0.120
831.98	0.121
832.42	0.120
832.85	0.123
833.28	0.125
833.72	0.125
834.15	0.120
834.58	0.117
835.02	0.121
835.45	0.125
835.88	0.121
836.32	0.123
836.75	0.123
837.19	0.122
837.62	0.121
838.05	0.119
838.49	0.124
838.92	0.120
839.35	0.122
839.79	0.122
840.22	0.124
840.65	0.121
841.09	0.125
841.52	0.125
841.95	0.122
842.39	0.124
842.82	0.117
843.25	0.124
843.68	0.121
844.12	0.124
844.55	0.119
844.98	0.122
845.42	0.119
845.85	0.117
846.28	0.120
846.71	0.122
847.15	0.124
847.58	0.121
848.01	0.127
848.45	0.125
848.88	0.127
849.31	0.120
849.74	0.123
850.18	0.121
850.61	0.122
851.04	0.125
851.47	0.123
851.91	0.124
852.34	0.126
852.77	0.122
853.20	0.123
853.64	0.123
854.07	0.126
854.50	0.120
854.93	0.126
855.36	0.124
855.80	0.124
856.23	0.120
856.66	0.124
857.09	0.124
857.52	0.124
857.96	0.120
858.39	0.119
858.82	0.118
859.25	0.127
859.68	0.124
860.12	0.119
860.55	0.122
860.98	0.126
861.41	0.121
861.84	0.126
862.27	0.121
862.71	0.123
863.14	0.124
863.57	0.123
864.00	0.118
864.43	0.125
864.86	0.122
865.30	0.131
865.73	0.124
866.16	0.119
866.59	0.128
867.02	0.120
867.45	0.122
867.88	0.128
868.31	0.124
868.75	0.125
869.18	0.125
869.61	0.126
870.04	0.123
870.47	0.125
870.90	0.121
871.33	0.122
871.76	0.127
872.19	0.123
872.62	0.124
873.06	0.120
873.49	0.123
873.92	0.126
874.35	0.126
874.78	0.125
875.21	0.128
875.64	0.122
876.07	0.127
876.50	0.129
876.93	0.128
877.36	0.124
877.79	0.134
878.22	0.127
878.65	0.127
879.08	0.120
879.51	0.128
879.94	0.126
880.37	0.131
880.80	0.135
881.23	0.120
881.67	0.130
882.10	0.128
882.53	0.123
882.96	0.130
883.39	0.127
883.82	0.124
884.25	0.123
884.68	0.128
885.11	0.123
885.54	0.130
885.97	0.124
886.39	0.125
886.82	0.126
887.25	0.129
887.68	0.123
888.11	0.124
888.54	0.128
888.97	0.129
889.40	0.131
889.83	0.127
890.26	0.125
890.69	0.128
891.12	0.129
891.55	0.129
891.98	0.128
892.41	0.122
892.84	0.126
893.27	0.129
893.70	0.129
894.13	0.128
894.56	0.129
894.98	0.129
895.41	0.132
895.84	0.133
896.27	0.132
896.70	0.132
897.13	0.134
897.56	0.125
897.99	0.129
898.42	0.126
898.85	0.132
899.27	0.130
899.70	0.131
900.13	0.127
900.56	0.129
900.99	0.134
901.42	0.130
901.85	0.129
902.28	0.131
902.70	0.133
903.13	0.131
903.56	0.132
903.99	0.128
904.42	0.134
904.85	0.133
905.27	0.131
905.70	0.127
906.13	0.132
906.56	0.130
906.99	0.132
907.42	0.128
907.84	0.132
908.27	0.132
908.70	0.134
909.13	0.132
909.56	0.128
909.98	0.127
910.41	0.130
910.84	0.130
911.27	0.134
911.70	0.129
912.12	0.129
912.55	0.128
912.98	0.127
913.41	0.128
913.84	0.128
914.26	0.128
914.69	0.129
915.12	0.131
915.55	0.128
915.97	0.131
916.40	0.131
916.83	0.130
917.26	0.128
917.68	0.132
918.11	0.131
918.54	0.125
918.97	0.132
919.39	0.131
919.82	0.129
920.25	0.126
920.67	0.129
921.10	0.135
921.53	0.132
921.96	0.136
922.38	0.129
922.81	0.132
923.24	0.133
923.66	0.132
924.09	0.136
924.52	0.139
924.94	0.135
925.37	0.136
925.80	0.139
926.22	0.132
926.65	0.135
927.08	0.135
927.50	0.137
927.93	0.138
928.36	0.134
928.78	0.142
929.21	0.137
929.64	0.144
930.06	0.144
930.49	0.144
930.92	0.145
931.34	0.143
931.77	0.146
932.20	0.147
932.62	0.142
933.05	0.145
933.47	0.150
933.90	0.148
934.33	0.145
934.75	0.149
935.18	0.155
935.61	0.151
936.03	0.153
936.46	0.157
936.88	0.160
937.31	0.156
937.73	0.157
938.16	0.153
938.59	0.163
939.01	0.157
939.44	0.168
939.86	0.169
940.29	0.171
940.71	0.173
941.14	0.180
941.57	0.175
941.99	0.167
942.42	0.177
942.84	0.185
943.27	0.180
943.69	0.179
944.12	0.189
944.54	0.193
944.97	0.182
945.39	0.187
945.82	0.196
946.24	0.196
946.67	0.189
947.09	0.194
947.52	0.196
947.94	0.200
948.37	0.205
948.79	0.202
949.22	0.213
949.64	0.202
950.07	0.208
950.49	0.215
950.92	0.216
951.34	0.213
951.77	0.217
952.19	0.223
952.62	0.227
953.04	0.231
953.47	0.230
953.89	0.231
954.32	0.242
954.74	0.238
955.17	0.239
955.59	0.247
956.01	0.244
956.44	0.255
956.86	0.261
957.29	0.255
957.71	0.262
958.14	0.256
958.56	0.254
958.98	0.262
959.41	0.263
959.83	0.265
960.26	0.269
960.68	0.273
961.10	0.272
961.53	0.272
961.95	0.272
962.38	0.277
962.80	0.275
963.22	0.279
963.65	0.281
964.07	0.277
964.50	0.277
964.92	0.280
965.34	0.279
965.77	0.280
966.19	0.281
966.61	0.279
967.04	0.285
967.46	0.283
967.88	0.293
968.31	0.282
968.73	0.282
969.15	0.282
969.58	0.283
970.00	0.283
970.42	0.285
970.85	0.280
971.27	0.284
971.69	0.284
972.12	0.289
972.54	0.287
972.96	0.291
973.39	0.286
973.81	0.295
974.23	0.288
974.65	0.288
975.08	0.295
975.50	0.291
975.92	0.284
976.35	0.292
976.77	0.289
977.19	0.288
977.61	0.290
978.04	0.282
978.46	0.289
978.88	0.288
979.30	0.292
979.73	0.290
980.15	0.292
980.57	0.295
980.99	0.292
981.42	0.293
981.84	0.293
982.26	0.288
982.68	0.289
983.11	0.289
983.53	0.282
983.95	0.289
984.37	0.289
984.79	0.289
985.22	0.289
985.64	0.289
986.06	0.285
986.48	0.287
986.90	0.281
987.33	0.284
987.75	0.282
988.17	0.281
988.59	0.285
989.01	0.279
989.43	0.275
989.86	0.284
990.28	0.281
990.70	0.275
991.12	0.279
991.54	0.274
991.96	0.277
992.39	0.280
992.81	0.275
993.23	0.274
993.65	0.273
994.07	0.273
994.49	0.275
994.91	0.274
995.34	0.268
995.76	0.268
996.18	0.271
996.60	0.263
997.02	0.266
997.44	0.266
997.86	0.270
998.28	0.268
998.70	0.271
999.12	0.274
999.55	0.271
999.97	0.267
1000.39	0.261
1000.81	0.270
1001.23	0.265
1001.65	0.267
1002.07	0.264
1002.49	0.266
1002.91	0.259
1003.33	0.257
1003.75	0.263
1004.17	0.261
1004.59	0.246
1005.01	0.257
1005.43	0.259
1005.85	0.256
1006.28	0.252
1006.70	0.252
1007.12	0.257
1007.54	0.247
1007.96	0.250
1008.38	0.255
1008.80	0.255
1009.22	0.247
1009.64	0.240
1010.06	0.244
1010.48	0.251
1010.90	0.240
1011.32	0.242
1011.74	0.244
1012.16	0.240
1012.58	0.239
1013.00	0.235
1013.42	0.228
1013.84	0.234
1014.26	0.239
1014.67	0.241
1015.09	0.228
1015.51	0.224
1015.93	0.233
1016.35	0.223
1016.77	0.225
1017.19	0.233
1017.61	0.228
1018.03	0.228
1018.45	0.226
1018.87	0.235
1019.29	0.227
1019.71	0.225
1020.13	0.228
1020.55	0.221
1020.97	0.219
1021.38	0.215
1021.80	0.219
1022.22	0.218
1022.64	0.210
1023.06	0.211
1023.48	0.222
1023.90	0.221
1024.32	0.206
1024.74	0.207
1025.15	0.208
1025.57	0.214
1025.99	0.212
1026.41	0.218
1026.83	0.209
1027.25	0.209
1027.67	0.207
1028.08	0.210
1028.50	0.221
1028.92	0.210
1029.34	0.214
1029.76	0.215
1030.18	0.204
1030.60	0.206
1031.01	0.201
1031.43	0.206
1031.85	0.203
1032.27	0.207
1032.69	0.201
1033.10	0.206
1033.52	0.195
1033.94	0.196
1034.36	0.193
1034.78	0.199
1035.19	0.198
1035.61	0.188
1036.03	0.211
1036.45	0.192
1036.87	0.195
1037.28	0.181
1037.70	0.186
1038.12	0.179
1038.54	0.184
1038.95	0.177
1039.37	0.193
1039.79	0.191
1040.21	0.182
1040.62	0.201
1041.04	0.168
1041.46	0.179
1041.88	0.182
1042.29	0.187
1042.71	0.190
1043.13	0.196
1043.55	0.198
1043.96	0.181
1044.38	0.179
1044.80	0.197
1045.21	0.180
1045.63	0.163
1046.05	0.168
1046.47	0.184
1046.88	0.178
1047.30	0.198
1047.72	0.179
1048.13	0.189
1048.55	0.181
1048.97	0.175
1049.38	0.198
1049.80	0.167
1050.22	0.184
1050.63	0.157
1051.05	0.188
1051.47	0.162
1051.88	0.173
1052.30	0.177
1052.72	0.191
1053.13	0.160
1053.55	0.184
1053.97	0.188
1054.38	0.170
1054.80	0.190
1055.21	0.187
1055.63	0.186
1056.05	0.175
1056.46	0.223
1056.88	0.180
1057.29	0.173
1057.71	0.177
1058.13	0.201
1058.54	0.193
1058.96	0.174
1059.37	0.191
1059.79	0.208
1060.21	0.159
1060.62	0.198
1061.04	0.190
1061.45	0.190
1061.87	0.177
1062.28	0.175
1062.70	0.213
1063.12	0.183
1063.53	0.177
1063.95	0.198
1064.36	0.215
1064.78	0.266
1065.19	0.208
1065.61	0.192
1066.02	0.203
1066.44	0.218
1066.85	0.127
1067.27	0.209
1067.68	0.183
1068.10	0.203
1068.51	0.255
1068.93	0.262
1069.35	0.327
1069.76	0.207
1070.17	0.250
1070.59	0.304
1071.00	0.261
1071.42	0.215
1071.83	0.380
1072.25	0.357
1072.66	0.312
1073.08	0.226
1073.49	0.319
1073.91	0.308
1074.32	0.336
1074.74	0.325
1075.15	0.297
1075.57	0.218
1075.98	0.405
1076.40	0.276
1076.81	0.348
1077.22	0.314
1077.64	0.486
1078.05	0.511
1078.47	0.458
1078.88	0.426
1079.30	0.679
1079.71	0.784
1080.12	1.000
1080.54	0.763
1080.95	0.605
1081.37	0.744
1081.78	0.268
1082.19	0.677
1082.61	1.430
1083.02	1.253
1083.44	0.822
1083.85	0.369
1084.26	1.520
1084.68	-0.000
1085.09	0.981
1085.50	-0.000
1085.92	-0.000
1086.33	1.263
1086.74	0.780
1087.16	-0.000
1087.57	-0.000
1087.98	1.422
1088.40	-0.000
1088.81	1.863
1089.22	1.606
1089.64	-0.000
1090.05	1.681
1090.46	-0.000
1090.88	-0.000
1091.29	-0.000
1091.70	-0.000
1092.12	-0.000
1092.53	-0.000
1092.94	-0.000
1093.36	-0.000
1093.77	-0.000
1094.18	-0.000
1094.59	-0.000
1095.01	-0.000
1095.42	-0.000
1095.83	-0.000
1096.25	-0.000
1096.66	-0.000
1097.07	-0.000
1097.48	1.982
1097.90	-0.000
1098.31	-0.000
1098.72	1.222
1099.13	-0.000
>>>>>End Processed Spectral Data<<<<<
