SpectraSuite Data File
++++++++++++++++++++++++++++++++++++
Date: Sun Apr 24 14:52:30 CEST 2016
User: spectrasuite
Dark Spectrum Present: Yes
Reference Spectrum Present: Yes
Number of Sampled Component Spectra: 1
Spectrometers: HR+C0708
Integration Time (usec): 1000 (HR+C0708)
Spectra Averaged: 10 (HR+C0708)
Boxcar Smoothing: 0 (HR+C0708)
Correct for Electrical Dark: No (HR+C0708)
Strobe/Lamp Enabled: No (HR+C0708)
Correct for Detector Non-linearity: No (HR+C0708)
Correct for Stray Light: No (HR+C0708)
Number of Pixels in Processed Spectrum: 2048
>>>>>Begin Processed Spectral Data<<<<<
188.76	-0.000
189.23	-0.000
189.70	-0.000
190.17	-0.000
190.64	-0.000
191.12	-0.000
191.59	-0.000
192.06	-0.000
192.53	-0.000
193.01	-0.000
193.48	-0.000
193.95	-0.000
194.42	-0.000
194.90	-0.000
195.37	-0.000
195.84	-0.000
196.31	-0.000
196.78	-0.000
197.26	-0.000
197.73	-0.000
198.20	-0.000
198.67	-0.000
199.14	-0.000
199.62	-0.000
200.09	-0.000
200.56	-0.000
201.03	1.763
201.50	0.734
201.97	-0.000
202.45	1.698
202.92	0.855
203.39	1.375
203.86	1.122
204.33	0.890
204.80	1.476
205.28	1.066
205.75	-0.000
206.22	-0.000
206.69	1.058
207.16	1.869
207.63	1.455
208.11	0.719
208.58	1.636
209.05	0.832
209.52	1.068
209.99	-0.000
210.46	-0.000
210.93	-0.000
211.41	1.398
211.88	1.587
212.35	-0.000
212.82	1.598
213.29	-0.000
213.76	0.839
214.23	1.697
214.70	0.804
215.18	-0.000
215.65	1.465
216.12	1.056
216.59	-0.000
217.06	-0.000
217.53	0.991
218.00	1.434
218.47	1.124
218.94	-0.000
219.41	-0.000
219.89	1.438
220.36	-0.000
220.83	1.505
221.30	-0.000
221.77	-0.000
222.24	-0.000
222.71	-0.000
223.18	-0.000
223.65	-0.000
224.12	-0.000
224.59	-0.000
225.06	1.990
225.54	1.309
226.01	-0.000
226.48	1.616
226.95	-0.000
227.42	2.553
227.89	-0.000
228.36	1.873
228.83	2.075
229.30	1.700
229.77	2.221
230.24	1.388
230.71	-0.000
231.18	2.321
231.65	1.696
232.12	1.929
232.59	2.356
233.06	2.141
233.53	2.184
234.00	1.989
234.47	2.634
234.94	-0.000
235.41	2.403
235.88	-0.000
236.35	-0.000
236.82	2.462
237.29	2.402
237.76	2.428
238.23	3.091
238.70	-0.000
239.17	2.434
239.64	-0.000
240.11	2.709
240.58	3.839
241.05	3.296
241.52	2.728
241.99	2.975
242.46	2.635
242.93	3.103
243.40	2.702
243.87	2.559
244.34	2.466
244.81	3.850
245.28	-0.000
245.75	3.163
246.22	3.626
246.69	2.906
247.16	2.923
247.63	2.666
248.10	3.049
248.57	2.755
249.04	-0.000
249.51	3.092
249.98	-0.000
250.45	-0.000
250.92	3.754
251.39	3.637
251.85	3.250
252.32	-0.000
252.79	2.960
253.26	2.939
253.73	-0.000
254.20	2.934
254.67	2.789
255.14	3.556
255.61	3.582
256.08	-0.000
256.55	-0.000
257.02	3.013
257.49	3.469
257.95	3.136
258.42	2.874
258.89	3.488
259.36	3.580
259.83	3.391
260.30	3.938
260.77	-0.000
261.24	2.874
261.71	3.877
262.17	3.213
262.64	2.831
263.11	3.931
263.58	-0.000
264.05	3.062
264.52	2.832
264.99	3.075
265.46	3.509
265.92	3.102
266.39	2.934
266.86	-0.000
267.33	3.382
267.80	2.787
268.27	3.407
268.74	3.491
269.20	3.143
269.67	3.290
270.14	2.789
270.61	3.037
271.08	3.023
271.55	2.687
272.01	2.857
272.48	3.065
272.95	2.865
273.42	2.864
273.89	2.742
274.36	2.706
274.82	2.770
275.29	2.801
275.76	2.618
276.23	2.812
276.70	2.696
277.16	2.676
277.63	2.588
278.10	2.660
278.57	2.680
279.04	2.671
279.50	2.657
279.97	2.566
280.44	2.643
280.91	2.593
281.38	2.516
281.84	2.680
282.31	2.740
282.78	2.886
283.25	2.524
283.72	2.600
284.18	2.599
284.65	2.483
285.12	2.466
285.59	2.544
286.05	2.500
286.52	2.540
286.99	2.524
287.46	2.481
287.92	2.555
288.39	2.323
288.86	2.490
289.33	2.450
289.79	2.443
290.26	2.445
290.73	2.428
291.20	2.354
291.66	2.442
292.13	2.425
292.60	2.375
293.07	2.364
293.53	2.220
294.00	2.352
294.47	2.358
294.93	2.323
295.40	2.373
295.87	2.344
296.34	2.345
296.80	2.288
297.27	2.304
297.74	2.238
298.20	2.315
298.67	2.269
299.14	2.321
299.60	2.283
300.07	2.219
300.54	2.208
301.01	2.222
301.47	2.197
301.94	2.176
302.41	2.195
302.87	2.170
303.34	2.298
303.81	2.136
304.27	2.181
304.74	2.148
305.21	2.116
305.67	2.224
306.14	2.128
306.61	2.145
307.07	2.069
307.54	2.055
308.01	2.092
308.47	2.119
308.94	2.107
309.40	2.091
309.87	2.090
310.34	2.069
310.80	2.176
311.27	2.100
311.74	2.063
312.20	2.050
312.67	2.045
313.13	1.992
313.60	2.100
314.07	2.092
314.53	2.051
315.00	2.025
315.47	2.061
315.93	2.014
316.40	1.994
316.86	2.025
317.33	2.024
317.80	1.999
318.26	1.996
318.73	2.030
319.19	2.020
319.66	1.950
320.13	1.942
320.59	1.951
321.06	1.947
321.52	1.957
321.99	1.931
322.45	1.915
322.92	1.888
323.39	1.903
323.85	1.911
324.32	1.921
324.78	1.882
325.25	1.923
325.71	1.860
326.18	1.834
326.64	1.891
327.11	1.829
327.58	1.839
328.04	1.809
328.51	1.794
328.97	1.815
329.44	1.764
329.90	1.761
330.37	1.762
330.83	1.728
331.30	1.746
331.76	1.717
332.23	1.709
332.69	1.722
333.16	1.666
333.62	1.645
334.09	1.627
334.56	1.632
335.02	1.601
335.49	1.587
335.95	1.552
336.42	1.533
336.88	1.528
337.35	1.492
337.81	1.480
338.28	1.448
338.74	1.430
339.20	1.406
339.67	1.377
340.13	1.353
340.60	1.325
341.06	1.294
341.53	1.271
341.99	1.250
342.46	1.217
342.92	1.194
343.39	1.165
343.85	1.142
344.32	1.125
344.78	1.106
345.25	1.087
345.71	1.057
346.17	1.034
346.64	1.016
347.10	0.990
347.57	0.960
348.03	0.934
348.50	0.915
348.96	0.890
349.43	0.884
349.89	0.856
350.35	0.846
350.82	0.831
351.28	0.813
351.75	0.791
352.21	0.786
352.67	0.764
353.14	0.762
353.60	0.741
354.07	0.732
354.53	0.716
355.00	0.702
355.46	0.689
355.92	0.682
356.39	0.669
356.85	0.666
357.31	0.652
357.78	0.649
358.24	0.635
358.71	0.627
359.17	0.619
359.63	0.617
360.10	0.610
360.56	0.608
361.03	0.601
361.49	0.599
361.95	0.589
362.42	0.584
362.88	0.581
363.34	0.575
363.81	0.572
364.27	0.569
364.73	0.566
365.20	0.566
365.66	0.563
366.12	0.557
366.59	0.555
367.05	0.552
367.51	0.551
367.98	0.547
368.44	0.544
368.90	0.547
369.37	0.539
369.83	0.536
370.29	0.538
370.76	0.536
371.22	0.533
371.68	0.528
372.15	0.525
372.61	0.523
373.07	0.523
373.54	0.521
374.00	0.519
374.46	0.515
374.92	0.517
375.39	0.516
375.85	0.514
376.31	0.513
376.78	0.508
377.24	0.508
377.70	0.504
378.16	0.504
378.63	0.503
379.09	0.500
379.55	0.500
380.01	0.499
380.48	0.498
380.94	0.494
381.40	0.492
381.87	0.492
382.33	0.491
382.79	0.488
383.25	0.486
383.72	0.489
384.18	0.487
384.64	0.480
385.10	0.478
385.56	0.481
386.03	0.478
386.49	0.476
386.95	0.477
387.41	0.472
387.88	0.473
388.34	0.475
388.80	0.469
389.26	0.472
389.72	0.469
390.19	0.468
390.65	0.466
391.11	0.461
391.57	0.462
392.04	0.461
392.50	0.457
392.96	0.459
393.42	0.454
393.88	0.456
394.34	0.455
394.81	0.453
395.27	0.452
395.73	0.452
396.19	0.450
396.65	0.448
397.12	0.446
397.58	0.444
398.04	0.444
398.50	0.446
398.96	0.442
399.42	0.441
399.89	0.440
400.35	0.440
400.81	0.437
401.27	0.435
401.73	0.434
402.19	0.432
402.65	0.430
403.12	0.431
403.58	0.427
404.04	0.428
404.50	0.429
404.96	0.427
405.42	0.425
405.88	0.424
406.34	0.419
406.81	0.420
407.27	0.418
407.73	0.419
408.19	0.416
408.65	0.416
409.11	0.411
409.57	0.415
410.03	0.412
410.49	0.414
410.96	0.414
411.42	0.410
411.88	0.410
412.34	0.408
412.80	0.409
413.26	0.401
413.72	0.404
414.18	0.400
414.64	0.401
415.10	0.403
415.56	0.403
416.02	0.402
416.48	0.399
416.95	0.395
417.41	0.397
417.87	0.393
418.33	0.394
418.79	0.390
419.25	0.390
419.71	0.390
420.17	0.392
420.63	0.386
421.09	0.387
421.55	0.388
422.01	0.389
422.47	0.389
422.93	0.386
423.39	0.383
423.85	0.385
424.31	0.382
424.77	0.382
425.23	0.384
425.69	0.381
426.15	0.380
426.61	0.377
427.07	0.372
427.53	0.375
427.99	0.374
428.45	0.374
428.91	0.372
429.37	0.370
429.83	0.370
430.29	0.371
430.75	0.373
431.21	0.370
431.67	0.369
432.13	0.367
432.59	0.361
433.05	0.365
433.51	0.366
433.97	0.364
434.43	0.362
434.89	0.365
435.35	0.361
435.81	0.362
436.27	0.360
436.73	0.357
437.19	0.357
437.65	0.360
438.11	0.353
438.57	0.359
439.03	0.350
439.48	0.354
439.94	0.354
440.40	0.351
440.86	0.354
441.32	0.350
441.78	0.352
442.24	0.349
442.70	0.347
443.16	0.347
443.62	0.345
444.08	0.346
444.54	0.346
444.99	0.347
445.45	0.343
445.91	0.341
446.37	0.341
446.83	0.342
447.29	0.343
447.75	0.340
448.21	0.340
448.67	0.335
449.12	0.336
449.58	0.337
450.04	0.334
450.50	0.335
450.96	0.335
451.42	0.330
451.88	0.330
452.34	0.331
452.79	0.329
453.25	0.330
453.71	0.330
454.17	0.327
454.63	0.332
455.09	0.331
455.55	0.330
456.00	0.327
456.46	0.323
456.92	0.326
457.38	0.322
457.84	0.322
458.30	0.318
458.75	0.322
459.21	0.318
459.67	0.323
460.13	0.322
460.59	0.320
461.04	0.316
461.50	0.319
461.96	0.315
462.42	0.315
462.88	0.314
463.33	0.315
463.79	0.312
464.25	0.314
464.71	0.312
465.17	0.311
465.62	0.311
466.08	0.312
466.54	0.313
467.00	0.313
467.46	0.311
467.91	0.309
468.37	0.308
468.83	0.307
469.29	0.307
469.74	0.308
470.20	0.305
470.66	0.304
471.12	0.301
471.57	0.306
472.03	0.303
472.49	0.302
472.95	0.303
473.40	0.299
473.86	0.298
474.32	0.298
474.78	0.298
475.23	0.298
475.69	0.300
476.15	0.294
476.60	0.297
477.06	0.298
477.52	0.292
477.98	0.293
478.43	0.292
478.89	0.293
479.35	0.292
479.80	0.292
480.26	0.290
480.72	0.291
481.18	0.293
481.63	0.292
482.09	0.290
482.55	0.290
483.00	0.288
483.46	0.289
483.92	0.286
484.37	0.288
484.83	0.285
485.29	0.283
485.74	0.285
486.20	0.285
486.66	0.284
487.11	0.285
487.57	0.282
488.03	0.282
488.48	0.282
488.94	0.280
489.40	0.281
489.85	0.282
490.31	0.279
490.77	0.279
491.22	0.282
491.68	0.276
492.13	0.279
492.59	0.278
493.05	0.275
493.50	0.277
493.96	0.275
494.42	0.275
494.87	0.272
495.33	0.273
495.78	0.273
496.24	0.274
496.70	0.273
497.15	0.272
497.61	0.273
498.06	0.270
498.52	0.269
498.98	0.269
499.43	0.272
499.89	0.268
500.34	0.270
500.80	0.270
501.25	0.269
501.71	0.267
502.17	0.267
502.62	0.267
503.08	0.264
503.53	0.263
503.99	0.264
504.44	0.261
504.90	0.263
505.36	0.261
505.81	0.263
506.27	0.264
506.72	0.262
507.18	0.262
507.63	0.259
508.09	0.261
508.54	0.256
509.00	0.257
509.45	0.260
509.91	0.256
510.36	0.256
510.82	0.258
511.27	0.258
511.73	0.259
512.19	0.256
512.64	0.255
513.10	0.255
513.55	0.254
514.01	0.253
514.46	0.254
514.92	0.253
515.37	0.251
515.83	0.251
516.28	0.252
516.73	0.251
517.19	0.249
517.64	0.250
518.10	0.249
518.55	0.249
519.01	0.248
519.46	0.248
519.92	0.247
520.37	0.245
520.83	0.246
521.28	0.245
521.74	0.244
522.19	0.246
522.65	0.246
523.10	0.242
523.55	0.244
524.01	0.243
524.46	0.244
524.92	0.241
525.37	0.242
525.83	0.241
526.28	0.243
526.73	0.241
527.19	0.243
527.64	0.243
528.10	0.239
528.55	0.240
529.01	0.241
529.46	0.239
529.91	0.241
530.37	0.239
530.82	0.238
531.28	0.239
531.73	0.235
532.18	0.238
532.64	0.237
533.09	0.233
533.54	0.237
534.00	0.234
534.45	0.239
534.91	0.235
535.36	0.236
535.81	0.232
536.27	0.231
536.72	0.233
537.17	0.232
537.63	0.229
538.08	0.228
538.54	0.232
538.99	0.231
539.44	0.234
539.90	0.229
540.35	0.229
540.80	0.228
541.26	0.229
541.71	0.227
542.16	0.228
542.62	0.226
543.07	0.227
543.52	0.229
543.98	0.227
544.43	0.226
544.88	0.224
545.34	0.225
545.79	0.224
546.24	0.223
546.69	0.223
547.15	0.223
547.60	0.223
548.05	0.223
548.51	0.220
548.96	0.222
549.41	0.221
549.86	0.221
550.32	0.221
550.77	0.221
551.22	0.221
551.68	0.218
552.13	0.218
552.58	0.216
553.03	0.217
553.49	0.218
553.94	0.217
554.39	0.216
554.84	0.219
555.30	0.216
555.75	0.216
556.20	0.215
556.65	0.213
557.11	0.215
557.56	0.213
558.01	0.214
558.46	0.215
558.92	0.213
559.37	0.214
559.82	0.212
560.27	0.212
560.72	0.212
561.18	0.209
561.63	0.208
562.08	0.209
562.53	0.210
562.99	0.212
563.44	0.211
563.89	0.208
564.34	0.209
564.79	0.210
565.25	0.208
565.70	0.207
566.15	0.206
566.60	0.206
567.05	0.207
567.50	0.207
567.96	0.206
568.41	0.207
568.86	0.204
569.31	0.205
569.76	0.202
570.21	0.204
570.67	0.205
571.12	0.204
571.57	0.203
572.02	0.202
572.47	0.203
572.92	0.202
573.37	0.200
573.83	0.201
574.28	0.201
574.73	0.200
575.18	0.199
575.63	0.201
576.08	0.199
576.53	0.198
576.98	0.200
577.44	0.197
577.89	0.198
578.34	0.197
578.79	0.196
579.24	0.199
579.69	0.197
580.14	0.196
580.59	0.195
581.04	0.195
581.49	0.196
581.95	0.195
582.40	0.193
582.85	0.194
583.30	0.194
583.75	0.192
584.20	0.193
584.65	0.192
585.10	0.192
585.55	0.193
586.00	0.193
586.45	0.193
586.90	0.193
587.35	0.191
587.80	0.190
588.25	0.190
588.71	0.190
589.16	0.188
589.61	0.189
590.06	0.188
590.51	0.191
590.96	0.188
591.41	0.188
591.86	0.188
592.31	0.188
592.76	0.186
593.21	0.188
593.66	0.187
594.11	0.189
594.56	0.186
595.01	0.187
595.46	0.186
595.91	0.188
596.36	0.187
596.81	0.186
597.26	0.186
597.71	0.185
598.16	0.185
598.61	0.185
599.06	0.185
599.51	0.186
599.96	0.186
600.41	0.184
600.86	0.185
601.31	0.183
601.76	0.184
602.21	0.185
602.65	0.183
603.10	0.182
603.55	0.182
604.00	0.183
604.45	0.182
604.90	0.180
605.35	0.179
605.80	0.181
606.25	0.182
606.70	0.180
607.15	0.179
607.60	0.178
608.05	0.179
608.50	0.179
608.95	0.177
609.39	0.180
609.84	0.179
610.29	0.177
610.74	0.177
611.19	0.177
611.64	0.176
612.09	0.177
612.54	0.177
612.99	0.177
613.44	0.176
613.88	0.179
614.33	0.175
614.78	0.173
615.23	0.174
615.68	0.172
616.13	0.174
616.58	0.174
617.03	0.175
617.47	0.175
617.92	0.174
618.37	0.172
618.82	0.173
619.27	0.174
619.72	0.172
620.17	0.171
620.61	0.172
621.06	0.172
621.51	0.170
621.96	0.169
622.41	0.171
622.86	0.169
623.30	0.170
623.75	0.172
624.20	0.171
624.65	0.169
625.10	0.170
625.54	0.168
625.99	0.168
626.44	0.167
626.89	0.167
627.34	0.169
627.78	0.166
628.23	0.166
628.68	0.168
629.13	0.167
629.58	0.167
630.02	0.166
630.47	0.166
630.92	0.164
631.37	0.164
631.81	0.164
632.26	0.164
632.71	0.165
633.16	0.165
633.61	0.164
634.05	0.164
634.50	0.163
634.95	0.164
635.40	0.165
635.84	0.165
636.29	0.164
636.74	0.165
637.18	0.165
637.63	0.162
638.08	0.161
638.53	0.162
638.97	0.163
639.42	0.163
639.87	0.163
640.32	0.159
640.76	0.163
641.21	0.161
641.66	0.162
642.10	0.162
642.55	0.161
643.00	0.160
643.44	0.161
643.89	0.161
644.34	0.161
644.79	0.159
645.23	0.160
645.68	0.159
646.13	0.158
646.57	0.159
647.02	0.158
647.47	0.159
647.91	0.158
648.36	0.157
648.81	0.158
649.25	0.157
649.70	0.156
650.15	0.157
650.59	0.157
651.04	0.156
651.48	0.160
651.93	0.157
652.38	0.155
652.82	0.155
653.27	0.156
653.72	0.156
654.16	0.154
654.61	0.155
655.06	0.156
655.50	0.153
655.95	0.153
656.39	0.148
656.84	0.152
657.29	0.156
657.73	0.153
658.18	0.153
658.62	0.153
659.07	0.154
659.52	0.153
659.96	0.155
660.41	0.153
660.85	0.150
661.30	0.153
661.74	0.153
662.19	0.150
662.64	0.154
663.08	0.152
663.53	0.152
663.97	0.151
664.42	0.151
664.86	0.154
665.31	0.151
665.75	0.148
666.20	0.151
666.65	0.150
667.09	0.150
667.54	0.152
667.98	0.151
668.43	0.149
668.87	0.150
669.32	0.150
669.76	0.149
670.21	0.150
670.65	0.148
671.10	0.149
671.54	0.147
671.99	0.147
672.43	0.149
672.88	0.147
673.32	0.148
673.77	0.146
674.21	0.147
674.66	0.146
675.10	0.146
675.55	0.144
675.99	0.148
676.44	0.145
676.88	0.147
677.33	0.147
677.77	0.146
678.22	0.144
678.66	0.144
679.11	0.144
679.55	0.145
679.99	0.144
680.44	0.148
680.88	0.144
681.33	0.143
681.77	0.143
682.22	0.146
682.66	0.145
683.11	0.145
683.55	0.143
683.99	0.144
684.44	0.142
684.88	0.142
685.33	0.144
685.77	0.142
686.21	0.141
686.66	0.141
687.10	0.142
687.55	0.141
687.99	0.144
688.44	0.143
688.88	0.142
689.32	0.143
689.77	0.141
690.21	0.140
690.65	0.143
691.10	0.143
691.54	0.140
691.99	0.141
692.43	0.139
692.87	0.139
693.32	0.142
693.76	0.140
694.20	0.141
694.65	0.139
695.09	0.140
695.53	0.139
695.98	0.140
696.42	0.140
696.86	0.139
697.31	0.138
697.75	0.139
698.19	0.138
698.64	0.138
699.08	0.139
699.52	0.137
699.97	0.140
700.41	0.139
700.85	0.138
701.30	0.139
701.74	0.138
702.18	0.137
702.63	0.137
703.07	0.137
703.51	0.140
703.96	0.139
704.40	0.137
704.84	0.139
705.28	0.137
705.73	0.137
706.17	0.138
706.61	0.137
707.06	0.137
707.50	0.137
707.94	0.136
708.38	0.136
708.83	0.137
709.27	0.136
709.71	0.136
710.15	0.139
710.60	0.136
711.04	0.135
711.48	0.137
711.92	0.137
712.37	0.135
712.81	0.137
713.25	0.137
713.69	0.133
714.13	0.136
714.58	0.136
715.02	0.136
715.46	0.135
715.90	0.134
716.35	0.134
716.79	0.137
717.23	0.137
717.67	0.134
718.11	0.136
718.56	0.135
719.00	0.135
719.44	0.136
719.88	0.134
720.32	0.133
720.76	0.135
721.21	0.134
721.65	0.134
722.09	0.134
722.53	0.135
722.97	0.137
723.41	0.134
723.86	0.136
724.30	0.134
724.74	0.135
725.18	0.135
725.62	0.134
726.06	0.134
726.50	0.132
726.95	0.134
727.39	0.135
727.83	0.133
728.27	0.133
728.71	0.135
729.15	0.134
729.59	0.136
730.03	0.133
730.48	0.133
730.92	0.135
731.36	0.135
731.80	0.134
732.24	0.137
732.68	0.135
733.12	0.132
733.56	0.133
734.00	0.134
734.44	0.134
734.89	0.136
735.33	0.137
735.77	0.136
736.21	0.137
736.65	0.133
737.09	0.138
737.53	0.136
737.97	0.135
738.41	0.136
738.85	0.136
739.29	0.137
739.73	0.135
740.17	0.131
740.61	0.133
741.05	0.134
741.49	0.135
741.93	0.133
742.37	0.131
742.81	0.134
743.26	0.134
743.70	0.133
744.14	0.133
744.58	0.132
745.02	0.134
745.46	0.134
745.90	0.133
746.34	0.134
746.78	0.134
747.22	0.134
747.66	0.134
748.10	0.134
748.54	0.130
748.98	0.131
749.42	0.132
749.86	0.134
750.29	0.131
750.73	0.130
751.17	0.129
751.61	0.130
752.05	0.133
752.49	0.128
752.93	0.130
753.37	0.131
753.81	0.129
754.25	0.128
754.69	0.129
755.13	0.129
755.57	0.131
756.01	0.132
756.45	0.130
756.89	0.132
757.33	0.130
757.77	0.129
758.21	0.130
758.64	0.127
759.08	0.127
759.52	0.128
759.96	0.133
760.40	0.128
760.84	0.129
761.28	0.128
761.72	0.127
762.16	0.129
762.60	0.126
763.03	0.126
763.47	0.126
763.91	0.130
764.35	0.126
764.79	0.125
765.23	0.127
765.67	0.128
766.11	0.125
766.54	0.125
766.98	0.127
767.42	0.126
767.86	0.126
768.30	0.125
768.74	0.128
769.17	0.129
769.61	0.127
770.05	0.128
770.49	0.128
770.93	0.127
771.37	0.124
771.80	0.126
772.24	0.125
772.68	0.126
773.12	0.125
773.56	0.125
774.00	0.125
774.43	0.123
774.87	0.124
775.31	0.123
775.75	0.124
776.19	0.124
776.62	0.123
777.06	0.124
777.50	0.121
777.94	0.123
778.37	0.125
778.81	0.126
779.25	0.125
779.69	0.124
780.13	0.123
780.56	0.121
781.00	0.123
781.44	0.124
781.88	0.125
782.31	0.121
782.75	0.120
783.19	0.126
783.63	0.123
784.06	0.121
784.50	0.125
784.94	0.123
785.37	0.123
785.81	0.121
786.25	0.124
786.69	0.120
787.12	0.120
787.56	0.120
788.00	0.123
788.43	0.124
788.87	0.121
789.31	0.121
789.75	0.122
790.18	0.121
790.62	0.120
791.06	0.123
791.49	0.121
791.93	0.119
792.37	0.125
792.80	0.120
793.24	0.119
793.68	0.121
794.11	0.121
794.55	0.122
794.99	0.122
795.42	0.121
795.86	0.122
796.30	0.120
796.73	0.119
797.17	0.119
797.61	0.124
798.04	0.123
798.48	0.120
798.91	0.121
799.35	0.119
799.79	0.123
800.22	0.120
800.66	0.118
801.10	0.121
801.53	0.121
801.97	0.123
802.40	0.121
802.84	0.119
803.28	0.115
803.71	0.121
804.15	0.117
804.58	0.118
805.02	0.120
805.46	0.118
805.89	0.116
806.33	0.121
806.76	0.118
807.20	0.122
807.63	0.118
808.07	0.119
808.51	0.117
808.94	0.116
809.38	0.117
809.81	0.117
810.25	0.120
810.68	0.118
811.12	0.117
811.55	0.121
811.99	0.119
812.42	0.122
812.86	0.113
813.29	0.120
813.73	0.120
814.17	0.116
814.60	0.118
815.04	0.116
815.47	0.116
815.91	0.118
816.34	0.119
816.78	0.118
817.21	0.122
817.65	0.119
818.08	0.115
818.52	0.122
818.95	0.117
819.39	0.118
819.82	0.122
820.25	0.118
820.69	0.117
821.12	0.116
821.56	0.115
821.99	0.119
822.43	0.116
822.86	0.120
823.30	0.121
823.73	0.116
824.17	0.119
824.60	0.113
825.04	0.118
825.47	0.117
825.90	0.115
826.34	0.121
826.77	0.118
827.21	0.118
827.64	0.116
828.08	0.115
828.51	0.113
828.94	0.118
829.38	0.114
829.81	0.117
830.25	0.120
830.68	0.122
831.11	0.119
831.55	0.120
831.98	0.121
832.42	0.119
832.85	0.120
833.28	0.120
833.72	0.120
834.15	0.117
834.58	0.119
835.02	0.122
835.45	0.124
835.88	0.124
836.32	0.122
836.75	0.119
837.19	0.122
837.62	0.120
838.05	0.122
838.49	0.122
838.92	0.120
839.35	0.125
839.79	0.120
840.22	0.126
840.65	0.118
841.09	0.124
841.52	0.120
841.95	0.120
842.39	0.123
842.82	0.121
843.25	0.119
843.68	0.121
844.12	0.122
844.55	0.122
844.98	0.118
845.42	0.123
845.85	0.119
846.28	0.121
846.71	0.118
847.15	0.127
847.58	0.124
848.01	0.122
848.45	0.123
848.88	0.124
849.31	0.123
849.74	0.120
850.18	0.121
850.61	0.125
851.04	0.125
851.47	0.122
851.91	0.125
852.34	0.125
852.77	0.121
853.20	0.121
853.64	0.123
854.07	0.121
854.50	0.121
854.93	0.126
855.36	0.122
855.80	0.123
856.23	0.119
856.66	0.123
857.09	0.121
857.52	0.122
857.96	0.118
858.39	0.122
858.82	0.122
859.25	0.123
859.68	0.120
860.12	0.122
860.55	0.122
860.98	0.121
861.41	0.123
861.84	0.124
862.27	0.115
862.71	0.119
863.14	0.119
863.57	0.119
864.00	0.122
864.43	0.122
864.86	0.126
865.30	0.121
865.73	0.123
866.16	0.121
866.59	0.123
867.02	0.120
867.45	0.122
867.88	0.122
868.31	0.127
868.75	0.119
869.18	0.128
869.61	0.127
870.04	0.124
870.47	0.123
870.90	0.120
871.33	0.121
871.76	0.125
872.19	0.126
872.62	0.126
873.06	0.122
873.49	0.126
873.92	0.123
874.35	0.124
874.78	0.124
875.21	0.122
875.64	0.122
876.07	0.133
876.50	0.127
876.93	0.129
877.36	0.128
877.79	0.128
878.22	0.120
878.65	0.123
879.08	0.124
879.51	0.126
879.94	0.121
880.37	0.130
880.80	0.131
881.23	0.123
881.67	0.133
882.10	0.128
882.53	0.124
882.96	0.124
883.39	0.123
883.82	0.126
884.25	0.124
884.68	0.125
885.11	0.128
885.54	0.126
885.97	0.128
886.39	0.126
886.82	0.129
887.25	0.124
887.68	0.125
888.11	0.129
888.54	0.123
888.97	0.126
889.40	0.127
889.83	0.127
890.26	0.125
890.69	0.124
891.12	0.126
891.55	0.129
891.98	0.126
892.41	0.125
892.84	0.126
893.27	0.128
893.70	0.128
894.13	0.124
894.56	0.125
894.98	0.131
895.41	0.130
895.84	0.128
896.27	0.131
896.70	0.126
897.13	0.132
897.56	0.132
897.99	0.129
898.42	0.130
898.85	0.131
899.27	0.131
899.70	0.130
900.13	0.127
900.56	0.132
900.99	0.131
901.42	0.133
901.85	0.132
902.28	0.127
902.70	0.132
903.13	0.133
903.56	0.127
903.99	0.128
904.42	0.131
904.85	0.128
905.27	0.130
905.70	0.133
906.13	0.130
906.56	0.126
906.99	0.134
907.42	0.129
907.84	0.126
908.27	0.128
908.70	0.132
909.13	0.128
909.56	0.128
909.98	0.130
910.41	0.128
910.84	0.130
911.27	0.133
911.70	0.130
912.12	0.126
912.55	0.128
912.98	0.131
913.41	0.129
913.84	0.127
914.26	0.128
914.69	0.129
915.12	0.131
915.55	0.126
915.97	0.126
916.40	0.133
916.83	0.127
917.26	0.130
917.68	0.130
918.11	0.130
918.54	0.129
918.97	0.133
919.39	0.129
919.82	0.131
920.25	0.130
920.67	0.129
921.10	0.135
921.53	0.132
921.96	0.132
922.38	0.132
922.81	0.130
923.24	0.135
923.66	0.127
924.09	0.134
924.52	0.135
924.94	0.134
925.37	0.138
925.80	0.139
926.22	0.133
926.65	0.135
927.08	0.136
927.50	0.134
927.93	0.137
928.36	0.134
928.78	0.138
929.21	0.139
929.64	0.141
930.06	0.143
930.49	0.144
930.92	0.145
931.34	0.143
931.77	0.145
932.20	0.144
932.62	0.149
933.05	0.149
933.47	0.148
933.90	0.145
934.33	0.145
934.75	0.151
935.18	0.152
935.61	0.149
936.03	0.153
936.46	0.159
936.88	0.155
937.31	0.155
937.73	0.156
938.16	0.149
938.59	0.159
939.01	0.166
939.44	0.169
939.86	0.168
940.29	0.165
940.71	0.169
941.14	0.174
941.57	0.170
941.99	0.178
942.42	0.184
942.84	0.178
943.27	0.183
943.69	0.182
944.12	0.187
944.54	0.185
944.97	0.180
945.39	0.186
945.82	0.186
946.24	0.193
946.67	0.193
947.09	0.196
947.52	0.198
947.94	0.196
948.37	0.195
948.79	0.200
949.22	0.207
949.64	0.197
950.07	0.210
950.49	0.211
950.92	0.212
951.34	0.212
951.77	0.218
952.19	0.221
952.62	0.224
953.04	0.223
953.47	0.233
953.89	0.230
954.32	0.234
954.74	0.240
955.17	0.240
955.59	0.243
956.01	0.243
956.44	0.256
956.86	0.249
957.29	0.254
957.71	0.257
958.14	0.262
958.56	0.264
958.98	0.260
959.41	0.266
959.83	0.266
960.26	0.264
960.68	0.275
961.10	0.270
961.53	0.265
961.95	0.273
962.38	0.275
962.80	0.274
963.22	0.274
963.65	0.272
964.07	0.274
964.50	0.277
964.92	0.280
965.34	0.277
965.77	0.276
966.19	0.283
966.61	0.285
967.04	0.286
967.46	0.285
967.88	0.290
968.31	0.283
968.73	0.283
969.15	0.285
969.58	0.282
970.00	0.287
970.42	0.286
970.85	0.279
971.27	0.285
971.69	0.285
972.12	0.290
972.54	0.290
972.96	0.285
973.39	0.288
973.81	0.290
974.23	0.286
974.65	0.288
975.08	0.290
975.50	0.287
975.92	0.288
976.35	0.287
976.77	0.287
977.19	0.290
977.61	0.285
978.04	0.283
978.46	0.286
978.88	0.285
979.30	0.290
979.73	0.289
980.15	0.292
980.57	0.293
980.99	0.292
981.42	0.284
981.84	0.291
982.26	0.286
982.68	0.292
983.11	0.290
983.53	0.283
983.95	0.292
984.37	0.286
984.79	0.287
985.22	0.294
985.64	0.286
986.06	0.284
986.48	0.286
986.90	0.279
987.33	0.286
987.75	0.278
988.17	0.277
988.59	0.276
989.01	0.279
989.43	0.275
989.86	0.281
990.28	0.287
990.70	0.279
991.12	0.281
991.54	0.276
991.96	0.278
992.39	0.281
992.81	0.272
993.23	0.276
993.65	0.271
994.07	0.272
994.49	0.270
994.91	0.273
995.34	0.271
995.76	0.267
996.18	0.273
996.60	0.272
997.02	0.270
997.44	0.268
997.86	0.277
998.28	0.267
998.70	0.260
999.12	0.263
999.55	0.264
999.97	0.267
1000.39	0.268
1000.81	0.263
1001.23	0.256
1001.65	0.259
1002.07	0.263
1002.49	0.260
1002.91	0.257
1003.33	0.260
1003.75	0.253
1004.17	0.256
1004.59	0.252
1005.01	0.257
1005.43	0.261
1005.85	0.252
1006.28	0.253
1006.70	0.251
1007.12	0.250
1007.54	0.247
1007.96	0.249
1008.38	0.251
1008.80	0.242
1009.22	0.236
1009.64	0.244
1010.06	0.253
1010.48	0.239
1010.90	0.245
1011.32	0.239
1011.74	0.240
1012.16	0.243
1012.58	0.242
1013.00	0.237
1013.42	0.227
1013.84	0.225
1014.26	0.234
1014.67	0.238
1015.09	0.231
1015.51	0.234
1015.93	0.235
1016.35	0.228
1016.77	0.227
1017.19	0.219
1017.61	0.228
1018.03	0.234
1018.45	0.223
1018.87	0.223
1019.29	0.232
1019.71	0.219
1020.13	0.227
1020.55	0.224
1020.97	0.215
1021.38	0.224
1021.80	0.215
1022.22	0.211
1022.64	0.210
1023.06	0.206
1023.48	0.224
1023.90	0.214
1024.32	0.201
1024.74	0.214
1025.15	0.214
1025.57	0.206
1025.99	0.206
1026.41	0.218
1026.83	0.209
1027.25	0.190
1027.67	0.219
1028.08	0.199
1028.50	0.207
1028.92	0.203
1029.34	0.204
1029.76	0.213
1030.18	0.198
1030.60	0.199
1031.01	0.204
1031.43	0.200
1031.85	0.206
1032.27	0.199
1032.69	0.197
1033.10	0.197
1033.52	0.197
1033.94	0.191
1034.36	0.203
1034.78	0.198
1035.19	0.188
1035.61	0.189
1036.03	0.194
1036.45	0.187
1036.87	0.186
1037.28	0.178
1037.70	0.186
1038.12	0.168
1038.54	0.187
1038.95	0.194
1039.37	0.171
1039.79	0.187
1040.21	0.187
1040.62	0.196
1041.04	0.192
1041.46	0.177
1041.88	0.194
1042.29	0.184
1042.71	0.176
1043.13	0.203
1043.55	0.193
1043.96	0.194
1044.38	0.196
1044.80	0.197
1045.21	0.185
1045.63	0.175
1046.05	0.183
1046.47	0.199
1046.88	0.180
1047.30	0.187
1047.72	0.184
1048.13	0.160
1048.55	0.159
1048.97	0.187
1049.38	0.202
1049.80	0.172
1050.22	0.190
1050.63	0.160
1051.05	0.187
1051.47	0.176
1051.88	0.155
1052.30	0.167
1052.72	0.153
1053.13	0.157
1053.55	0.203
1053.97	0.169
1054.38	0.167
1054.80	0.176
1055.21	0.149
1055.63	0.179
1056.05	0.159
1056.46	0.179
1056.88	0.160
1057.29	0.156
1057.71	0.170
1058.13	0.214
1058.54	0.195
1058.96	0.194
1059.37	0.183
1059.79	0.190
1060.21	0.192
1060.62	0.210
1061.04	0.172
1061.45	0.223
1061.87	0.173
1062.28	0.173
1062.70	0.251
1063.12	0.183
1063.53	0.141
1063.95	0.228
1064.36	0.205
1064.78	0.270
1065.19	0.229
1065.61	0.175
1066.02	0.240
1066.44	0.180
1066.85	0.164
1067.27	0.251
1067.68	0.269
1068.10	0.238
1068.51	0.222
1068.93	0.249
1069.35	0.397
1069.76	0.235
1070.17	0.224
1070.59	0.343
1071.00	0.256
1071.42	0.247
1071.83	0.282
1072.25	0.422
1072.66	0.235
1073.08	0.502
1073.49	0.419
1073.91	0.289
1074.32	0.294
1074.74	0.256
1075.15	0.355
1075.57	0.223
1075.98	0.372
1076.40	0.337
1076.81	0.590
1077.22	0.321
1077.64	0.379
1078.05	0.540
1078.47	0.783
1078.88	0.564
1079.30	0.709
1079.71	1.201
1080.12	-0.000
1080.54	1.081
1080.95	1.420
1081.37	-0.000
1081.78	0.317
1082.19	0.829
1082.61	1.129
1083.02	0.570
1083.44	0.537
1083.85	0.695
1084.26	-0.000
1084.68	1.273
1085.09	0.595
1085.50	0.845
1085.92	-0.000
1086.33	1.172
1086.74	0.564
1087.16	-0.000
1087.57	-0.000
1087.98	0.699
1088.40	1.653
1088.81	1.340
1089.22	-0.000
1089.64	0.604
1090.05	-0.000
1090.46	-0.000
1090.88	-0.000
1091.29	0.916
1091.70	-0.000
1092.12	-0.000
1092.53	-0.000
1092.94	-0.000
1093.36	-0.000
1093.77	-0.000
1094.18	0.889
1094.59	-0.000
1095.01	-0.000
1095.42	1.062
1095.83	-0.000
1096.25	-0.000
1096.66	-0.000
1097.07	-0.000
1097.48	-0.000
1097.90	-0.000
1098.31	-0.000
1098.72	-0.000
1099.13	-0.000
>>>>>End Processed Spectral Data<<<<<
