SpectraSuite Data File
++++++++++++++++++++++++++++++++++++
Date: Sun Apr 24 15:11:35 CEST 2016
User: spectrasuite
Dark Spectrum Present: Yes
Reference Spectrum Present: Yes
Number of Sampled Component Spectra: 1
Spectrometers: HR+C0708
Integration Time (usec): 1000 (HR+C0708)
Spectra Averaged: 10 (HR+C0708)
Boxcar Smoothing: 0 (HR+C0708)
Correct for Electrical Dark: No (HR+C0708)
Strobe/Lamp Enabled: No (HR+C0708)
Correct for Detector Non-linearity: No (HR+C0708)
Correct for Stray Light: No (HR+C0708)
Number of Pixels in Processed Spectrum: 2048
>>>>>Begin Processed Spectral Data<<<<<
188.76	-0.000
189.23	-0.000
189.70	-0.000
190.17	-0.000
190.64	-0.000
191.12	-0.000
191.59	-0.000
192.06	-0.000
192.53	-0.000
193.01	-0.000
193.48	-0.000
193.95	-0.000
194.42	-0.000
194.90	0.875
195.37	-0.000
195.84	-0.000
196.31	-0.000
196.78	-0.000
197.26	-0.000
197.73	-0.000
198.20	-0.000
198.67	-0.000
199.14	-0.000
199.62	-0.000
200.09	-0.000
200.56	-0.000
201.03	1.968
201.50	1.040
201.97	-0.000
202.45	1.657
202.92	-0.000
203.39	-0.000
203.86	1.182
204.33	-0.000
204.80	1.534
205.28	-0.000
205.75	-0.000
206.22	-0.000
206.69	-0.000
207.16	-0.000
207.63	1.644
208.11	0.561
208.58	-0.000
209.05	1.207
209.52	-0.000
209.99	1.131
210.46	1.101
210.93	-0.000
211.41	-0.000
211.88	-0.000
212.35	1.319
212.82	-0.000
213.29	1.489
213.76	2.457
214.23	-0.000
214.70	-0.000
215.18	1.654
215.65	0.863
216.12	0.747
216.59	0.989
217.06	-0.000
217.53	1.195
218.00	1.662
218.47	1.486
218.94	1.429
219.41	-0.000
219.89	1.323
220.36	-0.000
220.83	-0.000
221.30	-0.000
221.77	1.127
222.24	-0.000
222.71	-0.000
223.18	-0.000
223.65	1.296
224.12	-0.000
224.59	-0.000
225.06	-0.000
225.54	1.408
226.01	1.401
226.48	1.315
226.95	2.493
227.42	2.775
227.89	-0.000
228.36	1.451
228.83	-0.000
229.30	1.915
229.77	-0.000
230.24	1.633
230.71	-0.000
231.18	-0.000
231.65	1.969
232.12	1.653
232.59	-0.000
233.06	2.334
233.53	2.377
234.00	2.281
234.47	2.616
234.94	-0.000
235.41	2.004
235.88	-0.000
236.35	-0.000
236.82	2.893
237.29	3.082
237.76	-0.000
238.23	-0.000
238.70	2.297
239.17	2.133
239.64	2.973
240.11	-0.000
240.58	2.635
241.05	-0.000
241.52	3.157
241.99	3.088
242.46	2.571
242.93	-0.000
243.40	2.959
243.87	2.540
244.34	2.559
244.81	-0.000
245.28	-0.000
245.75	3.293
246.22	-0.000
246.69	2.851
247.16	2.638
247.63	2.683
248.10	2.873
248.57	4.398
249.04	2.964
249.51	3.114
249.98	-0.000
250.45	3.236
250.92	2.960
251.39	3.093
251.85	-0.000
252.32	3.140
252.79	3.036
253.26	2.814
253.73	-0.000
254.20	2.889
254.67	3.014
255.14	-0.000
255.61	-0.000
256.08	-0.000
256.55	-0.000
257.02	3.592
257.49	4.583
257.95	3.276
258.42	3.133
258.89	3.172
259.36	2.988
259.83	-0.000
260.30	3.558
260.77	4.343
261.24	3.030
261.71	-0.000
262.17	3.563
262.64	2.952
263.11	3.127
263.58	4.201
264.05	3.282
264.52	2.854
264.99	3.262
265.46	3.395
265.92	2.886
266.39	2.900
266.86	-0.000
267.33	3.553
267.80	2.771
268.27	3.495
268.74	3.053
269.20	3.470
269.67	2.951
270.14	2.824
270.61	2.897
271.08	2.892
271.55	2.838
272.01	3.277
272.48	2.980
272.95	2.745
273.42	3.235
273.89	3.134
274.36	2.981
274.82	2.876
275.29	2.730
275.76	2.844
276.23	2.561
276.70	2.717
277.16	2.674
277.63	2.690
278.10	2.623
278.57	2.761
279.04	2.671
279.50	2.640
279.97	2.656
280.44	2.388
280.91	2.603
281.38	2.581
281.84	2.663
282.31	2.686
282.78	2.964
283.25	2.566
283.72	2.439
284.18	2.577
284.65	2.516
285.12	2.618
285.59	2.438
286.05	2.499
286.52	2.378
286.99	2.457
287.46	2.489
287.92	2.382
288.39	2.361
288.86	2.481
289.33	2.416
289.79	2.369
290.26	2.344
290.73	2.380
291.20	2.275
291.66	2.355
292.13	2.270
292.60	2.347
293.07	2.295
293.53	2.224
294.00	2.286
294.47	2.252
294.93	2.235
295.40	2.295
295.87	2.248
296.34	2.291
296.80	2.162
297.27	2.226
297.74	2.169
298.20	2.204
298.67	2.178
299.14	2.246
299.60	2.166
300.07	2.160
300.54	2.201
301.01	2.165
301.47	2.126
301.94	2.107
302.41	2.127
302.87	2.152
303.34	2.173
303.81	2.121
304.27	2.123
304.74	2.081
305.21	2.073
305.67	2.129
306.14	2.068
306.61	2.091
307.07	1.999
307.54	2.054
308.01	2.048
308.47	2.048
308.94	2.063
309.40	2.084
309.87	1.972
310.34	2.010
310.80	2.063
311.27	2.007
311.74	2.012
312.20	2.031
312.67	2.003
313.13	1.971
313.60	1.972
314.07	1.999
314.53	1.989
315.00	1.955
315.47	2.025
315.93	1.948
316.40	1.931
316.86	1.926
317.33	1.985
317.80	1.908
318.26	1.920
318.73	1.930
319.19	1.946
319.66	1.875
320.13	1.875
320.59	1.906
321.06	1.882
321.52	1.901
321.99	1.867
322.45	1.849
322.92	1.836
323.39	1.842
323.85	1.832
324.32	1.849
324.78	1.841
325.25	1.824
325.71	1.817
326.18	1.780
326.64	1.819
327.11	1.763
327.58	1.765
328.04	1.741
328.51	1.755
328.97	1.753
329.44	1.719
329.90	1.715
330.37	1.694
330.83	1.672
331.30	1.688
331.76	1.671
332.23	1.657
332.69	1.651
333.16	1.617
333.62	1.600
334.09	1.582
334.56	1.558
335.02	1.563
335.49	1.540
335.95	1.510
336.42	1.495
336.88	1.475
337.35	1.472
337.81	1.457
338.28	1.432
338.74	1.422
339.20	1.388
339.67	1.358
340.13	1.342
340.60	1.315
341.06	1.288
341.53	1.273
341.99	1.250
342.46	1.227
342.92	1.204
343.39	1.180
343.85	1.161
344.32	1.140
344.78	1.112
345.25	1.109
345.71	1.079
346.17	1.058
346.64	1.043
347.10	1.016
347.57	0.982
348.03	0.963
348.50	0.941
348.96	0.931
349.43	0.907
349.89	0.893
350.35	0.873
350.82	0.853
351.28	0.845
351.75	0.827
352.21	0.815
352.67	0.792
353.14	0.784
353.60	0.772
354.07	0.759
354.53	0.742
355.00	0.732
355.46	0.724
355.92	0.714
356.39	0.702
356.85	0.695
357.31	0.686
357.78	0.675
358.24	0.664
358.71	0.661
359.17	0.654
359.63	0.650
360.10	0.644
360.56	0.633
361.03	0.630
361.49	0.618
361.95	0.621
362.42	0.615
362.88	0.610
363.34	0.603
363.81	0.601
364.27	0.600
364.73	0.594
365.20	0.592
365.66	0.589
366.12	0.586
366.59	0.586
367.05	0.580
367.51	0.576
367.98	0.571
368.44	0.571
368.90	0.572
369.37	0.566
369.83	0.566
370.29	0.562
370.76	0.562
371.22	0.557
371.68	0.560
372.15	0.554
372.61	0.551
373.07	0.547
373.54	0.549
374.00	0.548
374.46	0.543
374.92	0.543
375.39	0.546
375.85	0.539
376.31	0.540
376.78	0.535
377.24	0.535
377.70	0.532
378.16	0.530
378.63	0.528
379.09	0.527
379.55	0.528
380.01	0.523
380.48	0.524
380.94	0.518
381.40	0.519
381.87	0.518
382.33	0.514
382.79	0.515
383.25	0.512
383.72	0.518
384.18	0.509
384.64	0.510
385.10	0.510
385.56	0.507
386.03	0.503
386.49	0.503
386.95	0.498
387.41	0.499
387.88	0.495
388.34	0.492
388.80	0.492
389.26	0.492
389.72	0.494
390.19	0.494
390.65	0.490
391.11	0.488
391.57	0.487
392.04	0.484
392.50	0.484
392.96	0.483
393.42	0.478
393.88	0.480
394.34	0.481
394.81	0.476
395.27	0.477
395.73	0.477
396.19	0.472
396.65	0.472
397.12	0.467
397.58	0.467
398.04	0.463
398.50	0.464
398.96	0.461
399.42	0.467
399.89	0.462
400.35	0.461
400.81	0.462
401.27	0.460
401.73	0.459
402.19	0.456
402.65	0.453
403.12	0.451
403.58	0.449
404.04	0.451
404.50	0.448
404.96	0.445
405.42	0.448
405.88	0.448
406.34	0.445
406.81	0.443
407.27	0.442
407.73	0.440
408.19	0.439
408.65	0.437
409.11	0.437
409.57	0.439
410.03	0.438
410.49	0.438
410.96	0.435
411.42	0.434
411.88	0.433
412.34	0.429
412.80	0.428
413.26	0.425
413.72	0.425
414.18	0.420
414.64	0.425
415.10	0.423
415.56	0.424
416.02	0.423
416.48	0.420
416.95	0.417
417.41	0.421
417.87	0.416
418.33	0.418
418.79	0.414
419.25	0.414
419.71	0.411
420.17	0.411
420.63	0.410
421.09	0.407
421.55	0.403
422.01	0.408
422.47	0.405
422.93	0.407
423.39	0.406
423.85	0.406
424.31	0.402
424.77	0.401
425.23	0.402
425.69	0.402
426.15	0.399
426.61	0.398
427.07	0.395
427.53	0.398
427.99	0.395
428.45	0.396
428.91	0.394
429.37	0.391
429.83	0.389
430.29	0.390
430.75	0.391
431.21	0.394
431.67	0.388
432.13	0.389
432.59	0.382
433.05	0.386
433.51	0.381
433.97	0.384
434.43	0.380
434.89	0.382
435.35	0.382
435.81	0.378
436.27	0.379
436.73	0.377
437.19	0.378
437.65	0.376
438.11	0.377
438.57	0.376
439.03	0.372
439.48	0.371
439.94	0.373
440.40	0.370
440.86	0.369
441.32	0.367
441.78	0.371
442.24	0.365
442.70	0.365
443.16	0.366
443.62	0.361
444.08	0.363
444.54	0.367
444.99	0.363
445.45	0.358
445.91	0.357
446.37	0.361
446.83	0.358
447.29	0.358
447.75	0.357
448.21	0.358
448.67	0.354
449.12	0.356
449.58	0.357
450.04	0.353
450.50	0.353
450.96	0.353
451.42	0.351
451.88	0.346
452.34	0.351
452.79	0.348
453.25	0.350
453.71	0.346
454.17	0.345
454.63	0.348
455.09	0.346
455.55	0.345
456.00	0.342
456.46	0.342
456.92	0.340
457.38	0.340
457.84	0.339
458.30	0.338
458.75	0.341
459.21	0.333
459.67	0.340
460.13	0.338
460.59	0.334
461.04	0.334
461.50	0.334
461.96	0.333
462.42	0.333
462.88	0.331
463.33	0.331
463.79	0.329
464.25	0.331
464.71	0.328
465.17	0.330
465.62	0.329
466.08	0.330
466.54	0.329
467.00	0.327
467.46	0.326
467.91	0.322
468.37	0.323
468.83	0.324
469.29	0.322
469.74	0.323
470.20	0.321
470.66	0.320
471.12	0.317
471.57	0.320
472.03	0.317
472.49	0.318
472.95	0.319
473.40	0.316
473.86	0.316
474.32	0.314
474.78	0.314
475.23	0.311
475.69	0.314
476.15	0.313
476.60	0.313
477.06	0.311
477.52	0.310
477.98	0.309
478.43	0.309
478.89	0.308
479.35	0.306
479.80	0.308
480.26	0.307
480.72	0.306
481.18	0.309
481.63	0.305
482.09	0.307
482.55	0.306
483.00	0.302
483.46	0.302
483.92	0.300
484.37	0.302
484.83	0.298
485.29	0.299
485.74	0.299
486.20	0.301
486.66	0.299
487.11	0.298
487.57	0.297
488.03	0.297
488.48	0.296
488.94	0.294
489.40	0.294
489.85	0.295
490.31	0.293
490.77	0.294
491.22	0.294
491.68	0.293
492.13	0.291
492.59	0.292
493.05	0.289
493.50	0.291
493.96	0.291
494.42	0.287
494.87	0.288
495.33	0.285
495.78	0.289
496.24	0.290
496.70	0.287
497.15	0.284
497.61	0.286
498.06	0.286
498.52	0.280
498.98	0.282
499.43	0.284
499.89	0.283
500.34	0.283
500.80	0.282
501.25	0.282
501.71	0.279
502.17	0.280
502.62	0.280
503.08	0.278
503.53	0.276
503.99	0.277
504.44	0.279
504.90	0.277
505.36	0.277
505.81	0.276
506.27	0.276
506.72	0.275
507.18	0.274
507.63	0.272
508.09	0.274
508.54	0.273
509.00	0.272
509.45	0.272
509.91	0.271
510.36	0.270
510.82	0.270
511.27	0.270
511.73	0.270
512.19	0.267
512.64	0.267
513.10	0.266
513.55	0.267
514.01	0.265
514.46	0.267
514.92	0.265
515.37	0.267
515.83	0.265
516.28	0.263
516.73	0.262
517.19	0.263
517.64	0.262
518.10	0.261
518.55	0.259
519.01	0.261
519.46	0.261
519.92	0.260
520.37	0.258
520.83	0.258
521.28	0.257
521.74	0.258
522.19	0.258
522.65	0.257
523.10	0.258
523.55	0.256
524.01	0.258
524.46	0.256
524.92	0.252
525.37	0.256
525.83	0.254
526.28	0.253
526.73	0.255
527.19	0.255
527.64	0.256
528.10	0.251
528.55	0.250
529.01	0.253
529.46	0.252
529.91	0.250
530.37	0.250
530.82	0.252
531.28	0.248
531.73	0.245
532.18	0.247
532.64	0.249
533.09	0.244
533.54	0.246
534.00	0.246
534.45	0.248
534.91	0.247
535.36	0.247
535.81	0.244
536.27	0.243
536.72	0.247
537.17	0.243
537.63	0.242
538.08	0.241
538.54	0.243
538.99	0.242
539.44	0.244
539.90	0.241
540.35	0.239
540.80	0.239
541.26	0.240
541.71	0.240
542.16	0.239
542.62	0.237
543.07	0.239
543.52	0.239
543.98	0.238
544.43	0.237
544.88	0.237
545.34	0.237
545.79	0.235
546.24	0.235
546.69	0.238
547.15	0.234
547.60	0.233
548.05	0.236
548.51	0.232
548.96	0.230
549.41	0.233
549.86	0.231
550.32	0.234
550.77	0.232
551.22	0.231
551.68	0.229
552.13	0.228
552.58	0.228
553.03	0.229
553.49	0.230
553.94	0.226
554.39	0.229
554.84	0.230
555.30	0.227
555.75	0.227
556.20	0.228
556.65	0.226
557.11	0.227
557.56	0.225
558.01	0.226
558.46	0.226
558.92	0.225
559.37	0.224
559.82	0.224
560.27	0.223
560.72	0.222
561.18	0.223
561.63	0.221
562.08	0.221
562.53	0.222
562.99	0.222
563.44	0.224
563.89	0.219
564.34	0.221
564.79	0.218
565.25	0.219
565.70	0.218
566.15	0.217
566.60	0.217
567.05	0.218
567.50	0.217
567.96	0.215
568.41	0.217
568.86	0.217
569.31	0.214
569.76	0.215
570.21	0.215
570.67	0.215
571.12	0.214
571.57	0.213
572.02	0.213
572.47	0.212
572.92	0.214
573.37	0.211
573.83	0.210
574.28	0.212
574.73	0.211
575.18	0.210
575.63	0.211
576.08	0.209
576.53	0.209
576.98	0.210
577.44	0.207
577.89	0.207
578.34	0.208
578.79	0.206
579.24	0.206
579.69	0.208
580.14	0.205
580.59	0.204
581.04	0.205
581.49	0.204
581.95	0.204
582.40	0.204
582.85	0.203
583.30	0.203
583.75	0.202
584.20	0.203
584.65	0.204
585.10	0.202
585.55	0.202
586.00	0.201
586.45	0.201
586.90	0.202
587.35	0.201
587.80	0.201
588.25	0.200
588.71	0.201
589.16	0.199
589.61	0.200
590.06	0.198
590.51	0.199
590.96	0.199
591.41	0.199
591.86	0.199
592.31	0.198
592.76	0.198
593.21	0.197
593.66	0.198
594.11	0.198
594.56	0.196
595.01	0.197
595.46	0.196
595.91	0.196
596.36	0.194
596.81	0.195
597.26	0.194
597.71	0.194
598.16	0.193
598.61	0.194
599.06	0.194
599.51	0.196
599.96	0.193
600.41	0.195
600.86	0.194
601.31	0.192
601.76	0.192
602.21	0.194
602.65	0.193
603.10	0.191
603.55	0.193
604.00	0.191
604.45	0.189
604.90	0.189
605.35	0.189
605.80	0.191
606.25	0.192
606.70	0.189
607.15	0.188
607.60	0.187
608.05	0.188
608.50	0.188
608.95	0.185
609.39	0.189
609.84	0.187
610.29	0.187
610.74	0.186
611.19	0.187
611.64	0.185
612.09	0.187
612.54	0.187
612.99	0.187
613.44	0.184
613.88	0.186
614.33	0.184
614.78	0.182
615.23	0.182
615.68	0.183
616.13	0.183
616.58	0.184
617.03	0.181
617.47	0.184
617.92	0.182
618.37	0.181
618.82	0.181
619.27	0.183
619.72	0.179
620.17	0.181
620.61	0.181
621.06	0.180
621.51	0.180
621.96	0.178
622.41	0.179
622.86	0.179
623.30	0.178
623.75	0.180
624.20	0.180
624.65	0.179
625.10	0.178
625.54	0.175
625.99	0.178
626.44	0.178
626.89	0.177
627.34	0.180
627.78	0.176
628.23	0.174
628.68	0.175
629.13	0.174
629.58	0.176
630.02	0.176
630.47	0.175
630.92	0.174
631.37	0.174
631.81	0.175
632.26	0.174
632.71	0.175
633.16	0.172
633.61	0.172
634.05	0.173
634.50	0.172
634.95	0.172
635.40	0.173
635.84	0.174
636.29	0.171
636.74	0.173
637.18	0.172
637.63	0.171
638.08	0.169
638.53	0.173
638.97	0.171
639.42	0.171
639.87	0.169
640.32	0.168
640.76	0.170
641.21	0.170
641.66	0.171
642.10	0.169
642.55	0.168
643.00	0.168
643.44	0.169
643.89	0.169
644.34	0.167
644.79	0.166
645.23	0.168
645.68	0.167
646.13	0.167
646.57	0.168
647.02	0.165
647.47	0.170
647.91	0.165
648.36	0.167
648.81	0.165
649.25	0.163
649.70	0.164
650.15	0.165
650.59	0.166
651.04	0.164
651.48	0.167
651.93	0.165
652.38	0.163
652.82	0.164
653.27	0.163
653.72	0.164
654.16	0.162
654.61	0.162
655.06	0.162
655.50	0.160
655.95	0.161
656.39	0.157
656.84	0.159
657.29	0.163
657.73	0.161
658.18	0.162
658.62	0.161
659.07	0.160
659.52	0.161
659.96	0.161
660.41	0.163
660.85	0.160
661.30	0.159
661.74	0.162
662.19	0.160
662.64	0.160
663.08	0.157
663.53	0.161
663.97	0.157
664.42	0.161
664.86	0.161
665.31	0.160
665.75	0.158
666.20	0.159
666.65	0.159
667.09	0.158
667.54	0.158
667.98	0.157
668.43	0.158
668.87	0.155
669.32	0.156
669.76	0.154
670.21	0.156
670.65	0.153
671.10	0.156
671.54	0.157
671.99	0.155
672.43	0.155
672.88	0.156
673.32	0.154
673.77	0.152
674.21	0.154
674.66	0.154
675.10	0.153
675.55	0.151
675.99	0.156
676.44	0.154
676.88	0.156
677.33	0.154
677.77	0.153
678.22	0.153
678.66	0.151
679.11	0.151
679.55	0.153
679.99	0.152
680.44	0.153
680.88	0.152
681.33	0.150
681.77	0.151
682.22	0.152
682.66	0.152
683.11	0.152
683.55	0.151
683.99	0.150
684.44	0.150
684.88	0.148
685.33	0.150
685.77	0.150
686.21	0.150
686.66	0.150
687.10	0.149
687.55	0.148
687.99	0.151
688.44	0.150
688.88	0.149
689.32	0.150
689.77	0.149
690.21	0.149
690.65	0.149
691.10	0.149
691.54	0.148
691.99	0.149
692.43	0.147
692.87	0.147
693.32	0.149
693.76	0.149
694.20	0.148
694.65	0.147
695.09	0.149
695.53	0.146
695.98	0.147
696.42	0.147
696.86	0.145
697.31	0.145
697.75	0.147
698.19	0.145
698.64	0.146
699.08	0.146
699.52	0.147
699.97	0.147
700.41	0.145
700.85	0.148
701.30	0.144
701.74	0.145
702.18	0.145
702.63	0.145
703.07	0.147
703.51	0.146
703.96	0.143
704.40	0.142
704.84	0.145
705.28	0.144
705.73	0.143
706.17	0.145
706.61	0.144
707.06	0.141
707.50	0.143
707.94	0.143
708.38	0.141
708.83	0.144
709.27	0.144
709.71	0.144
710.15	0.143
710.60	0.142
711.04	0.141
711.48	0.142
711.92	0.143
712.37	0.141
712.81	0.145
713.25	0.142
713.69	0.143
714.13	0.144
714.58	0.143
715.02	0.142
715.46	0.141
715.90	0.139
716.35	0.141
716.79	0.142
717.23	0.143
717.67	0.141
718.11	0.147
718.56	0.141
719.00	0.142
719.44	0.140
719.88	0.139
720.32	0.139
720.76	0.141
721.21	0.140
721.65	0.141
722.09	0.141
722.53	0.143
722.97	0.142
723.41	0.140
723.86	0.144
724.30	0.140
724.74	0.144
725.18	0.143
725.62	0.140
726.06	0.140
726.50	0.140
726.95	0.139
727.39	0.140
727.83	0.140
728.27	0.140
728.71	0.139
729.15	0.144
729.59	0.142
730.03	0.141
730.48	0.141
730.92	0.140
731.36	0.141
731.80	0.140
732.24	0.141
732.68	0.139
733.12	0.139
733.56	0.139
734.00	0.141
734.44	0.140
734.89	0.141
735.33	0.140
735.77	0.142
736.21	0.143
736.65	0.140
737.09	0.143
737.53	0.142
737.97	0.140
738.41	0.142
738.85	0.143
739.29	0.142
739.73	0.139
740.17	0.141
740.61	0.139
741.05	0.139
741.49	0.141
741.93	0.141
742.37	0.140
742.81	0.139
743.26	0.138
743.70	0.139
744.14	0.139
744.58	0.137
745.02	0.140
745.46	0.140
745.90	0.138
746.34	0.140
746.78	0.138
747.22	0.140
747.66	0.141
748.10	0.138
748.54	0.136
748.98	0.137
749.42	0.140
749.86	0.139
750.29	0.138
750.73	0.136
751.17	0.138
751.61	0.136
752.05	0.138
752.49	0.136
752.93	0.134
753.37	0.138
753.81	0.136
754.25	0.136
754.69	0.135
755.13	0.136
755.57	0.140
756.01	0.138
756.45	0.136
756.89	0.133
757.33	0.136
757.77	0.136
758.21	0.135
758.64	0.133
759.08	0.131
759.52	0.132
759.96	0.135
760.40	0.135
760.84	0.131
761.28	0.133
761.72	0.134
762.16	0.134
762.60	0.134
763.03	0.133
763.47	0.132
763.91	0.134
764.35	0.132
764.79	0.133
765.23	0.130
765.67	0.133
766.11	0.128
766.54	0.129
766.98	0.131
767.42	0.135
767.86	0.131
768.30	0.132
768.74	0.134
769.17	0.134
769.61	0.132
770.05	0.131
770.49	0.133
770.93	0.131
771.37	0.128
771.80	0.132
772.24	0.129
772.68	0.130
773.12	0.129
773.56	0.130
774.00	0.131
774.43	0.129
774.87	0.128
775.31	0.129
775.75	0.130
776.19	0.130
776.62	0.130
777.06	0.132
777.50	0.128
777.94	0.130
778.37	0.128
778.81	0.130
779.25	0.129
779.69	0.132
780.13	0.130
780.56	0.128
781.00	0.127
781.44	0.128
781.88	0.128
782.31	0.127
782.75	0.128
783.19	0.130
783.63	0.131
784.06	0.126
784.50	0.129
784.94	0.130
785.37	0.128
785.81	0.131
786.25	0.129
786.69	0.126
787.12	0.128
787.56	0.126
788.00	0.128
788.43	0.128
788.87	0.129
789.31	0.131
789.75	0.129
790.18	0.124
790.62	0.124
791.06	0.127
791.49	0.126
791.93	0.124
792.37	0.128
792.80	0.126
793.24	0.124
793.68	0.126
794.11	0.126
794.55	0.128
794.99	0.123
795.42	0.125
795.86	0.128
796.30	0.126
796.73	0.126
797.17	0.124
797.61	0.126
798.04	0.125
798.48	0.123
798.91	0.127
799.35	0.123
799.79	0.131
800.22	0.125
800.66	0.126
801.10	0.128
801.53	0.123
801.97	0.127
802.40	0.128
802.84	0.122
803.28	0.120
803.71	0.123
804.15	0.122
804.58	0.127
805.02	0.127
805.46	0.123
805.89	0.125
806.33	0.122
806.76	0.124
807.20	0.124
807.63	0.125
808.07	0.124
808.51	0.122
808.94	0.122
809.38	0.123
809.81	0.124
810.25	0.125
810.68	0.128
811.12	0.125
811.55	0.122
811.99	0.122
812.42	0.123
812.86	0.122
813.29	0.121
813.73	0.123
814.17	0.120
814.60	0.122
815.04	0.123
815.47	0.124
815.91	0.121
816.34	0.121
816.78	0.120
817.21	0.125
817.65	0.121
818.08	0.121
818.52	0.122
818.95	0.122
819.39	0.124
819.82	0.122
820.25	0.122
820.69	0.121
821.12	0.122
821.56	0.123
821.99	0.122
822.43	0.121
822.86	0.124
823.30	0.122
823.73	0.118
824.17	0.120
824.60	0.120
825.04	0.123
825.47	0.121
825.90	0.124
826.34	0.125
826.77	0.122
827.21	0.122
827.64	0.123
828.08	0.121
828.51	0.121
828.94	0.123
829.38	0.122
829.81	0.122
830.25	0.123
830.68	0.126
831.11	0.124
831.55	0.124
831.98	0.126
832.42	0.123
832.85	0.124
833.28	0.127
833.72	0.125
834.15	0.122
834.58	0.123
835.02	0.127
835.45	0.128
835.88	0.126
836.32	0.126
836.75	0.129
837.19	0.126
837.62	0.126
838.05	0.125
838.49	0.131
838.92	0.125
839.35	0.126
839.79	0.125
840.22	0.127
840.65	0.126
841.09	0.127
841.52	0.126
841.95	0.128
842.39	0.131
842.82	0.126
843.25	0.125
843.68	0.131
844.12	0.126
844.55	0.126
844.98	0.124
845.42	0.122
845.85	0.120
846.28	0.124
846.71	0.123
847.15	0.123
847.58	0.131
848.01	0.128
848.45	0.128
848.88	0.129
849.31	0.128
849.74	0.127
850.18	0.128
850.61	0.125
851.04	0.130
851.47	0.128
851.91	0.127
852.34	0.126
852.77	0.127
853.20	0.123
853.64	0.124
854.07	0.126
854.50	0.124
854.93	0.132
855.36	0.123
855.80	0.123
856.23	0.124
856.66	0.130
857.09	0.128
857.52	0.124
857.96	0.129
858.39	0.125
858.82	0.120
859.25	0.130
859.68	0.125
860.12	0.128
860.55	0.121
860.98	0.129
861.41	0.124
861.84	0.132
862.27	0.125
862.71	0.124
863.14	0.123
863.57	0.127
864.00	0.120
864.43	0.127
864.86	0.130
865.30	0.133
865.73	0.130
866.16	0.127
866.59	0.127
867.02	0.123
867.45	0.127
867.88	0.130
868.31	0.131
868.75	0.129
869.18	0.131
869.61	0.132
870.04	0.125
870.47	0.131
870.90	0.128
871.33	0.130
871.76	0.128
872.19	0.135
872.62	0.127
873.06	0.124
873.49	0.123
873.92	0.133
874.35	0.131
874.78	0.129
875.21	0.125
875.64	0.120
876.07	0.133
876.50	0.132
876.93	0.131
877.36	0.132
877.79	0.131
878.22	0.128
878.65	0.131
879.08	0.129
879.51	0.131
879.94	0.127
880.37	0.133
880.80	0.138
881.23	0.122
881.67	0.129
882.10	0.135
882.53	0.129
882.96	0.132
883.39	0.129
883.82	0.129
884.25	0.133
884.68	0.132
885.11	0.128
885.54	0.131
885.97	0.131
886.39	0.127
886.82	0.129
887.25	0.135
887.68	0.131
888.11	0.130
888.54	0.126
888.97	0.129
889.40	0.130
889.83	0.129
890.26	0.125
890.69	0.131
891.12	0.130
891.55	0.134
891.98	0.132
892.41	0.131
892.84	0.129
893.27	0.129
893.70	0.130
894.13	0.133
894.56	0.133
894.98	0.134
895.41	0.138
895.84	0.134
896.27	0.129
896.70	0.132
897.13	0.133
897.56	0.133
897.99	0.131
898.42	0.126
898.85	0.137
899.27	0.134
899.70	0.135
900.13	0.134
900.56	0.133
900.99	0.132
901.42	0.137
901.85	0.134
902.28	0.135
902.70	0.135
903.13	0.136
903.56	0.132
903.99	0.133
904.42	0.135
904.85	0.135
905.27	0.133
905.70	0.136
906.13	0.138
906.56	0.132
906.99	0.134
907.42	0.132
907.84	0.133
908.27	0.132
908.70	0.135
909.13	0.134
909.56	0.130
909.98	0.135
910.41	0.133
910.84	0.133
911.27	0.137
911.70	0.131
912.12	0.133
912.55	0.129
912.98	0.131
913.41	0.132
913.84	0.134
914.26	0.133
914.69	0.134
915.12	0.130
915.55	0.129
915.97	0.135
916.40	0.131
916.83	0.127
917.26	0.133
917.68	0.134
918.11	0.135
918.54	0.131
918.97	0.131
919.39	0.134
919.82	0.132
920.25	0.128
920.67	0.131
921.10	0.135
921.53	0.137
921.96	0.138
922.38	0.137
922.81	0.136
923.24	0.137
923.66	0.136
924.09	0.137
924.52	0.139
924.94	0.139
925.37	0.140
925.80	0.140
926.22	0.136
926.65	0.137
927.08	0.141
927.50	0.140
927.93	0.144
928.36	0.139
928.78	0.141
929.21	0.140
929.64	0.143
930.06	0.147
930.49	0.148
930.92	0.148
931.34	0.147
931.77	0.147
932.20	0.148
932.62	0.149
933.05	0.150
933.47	0.153
933.90	0.152
934.33	0.149
934.75	0.151
935.18	0.155
935.61	0.156
936.03	0.159
936.46	0.160
936.88	0.159
937.31	0.162
937.73	0.162
938.16	0.156
938.59	0.162
939.01	0.166
939.44	0.172
939.86	0.169
940.29	0.168
940.71	0.169
941.14	0.178
941.57	0.180
941.99	0.175
942.42	0.179
942.84	0.180
943.27	0.187
943.69	0.186
944.12	0.193
944.54	0.196
944.97	0.186
945.39	0.191
945.82	0.199
946.24	0.198
946.67	0.198
947.09	0.203
947.52	0.201
947.94	0.201
948.37	0.214
948.79	0.205
949.22	0.210
949.64	0.208
950.07	0.216
950.49	0.213
950.92	0.221
951.34	0.217
951.77	0.220
952.19	0.222
952.62	0.232
953.04	0.231
953.47	0.232
953.89	0.236
954.32	0.242
954.74	0.243
955.17	0.235
955.59	0.252
956.01	0.246
956.44	0.258
956.86	0.261
957.29	0.262
957.71	0.259
958.14	0.266
958.56	0.263
958.98	0.267
959.41	0.266
959.83	0.267
960.26	0.271
960.68	0.274
961.10	0.275
961.53	0.275
961.95	0.278
962.38	0.279
962.80	0.272
963.22	0.283
963.65	0.278
964.07	0.283
964.50	0.279
964.92	0.281
965.34	0.285
965.77	0.278
966.19	0.288
966.61	0.285
967.04	0.291
967.46	0.287
967.88	0.293
968.31	0.285
968.73	0.286
969.15	0.283
969.58	0.289
970.00	0.281
970.42	0.284
970.85	0.288
971.27	0.290
971.69	0.285
972.12	0.290
972.54	0.299
972.96	0.295
973.39	0.294
973.81	0.298
974.23	0.292
974.65	0.294
975.08	0.292
975.50	0.295
975.92	0.293
976.35	0.295
976.77	0.294
977.19	0.296
977.61	0.294
978.04	0.285
978.46	0.294
978.88	0.294
979.30	0.294
979.73	0.292
980.15	0.295
980.57	0.294
980.99	0.295
981.42	0.292
981.84	0.298
982.26	0.291
982.68	0.295
983.11	0.293
983.53	0.285
983.95	0.292
984.37	0.289
984.79	0.294
985.22	0.287
985.64	0.291
986.06	0.290
986.48	0.290
986.90	0.287
987.33	0.284
987.75	0.286
988.17	0.285
988.59	0.282
989.01	0.279
989.43	0.282
989.86	0.282
990.28	0.289
990.70	0.282
991.12	0.279
991.54	0.284
991.96	0.281
992.39	0.282
992.81	0.276
993.23	0.282
993.65	0.271
994.07	0.275
994.49	0.277
994.91	0.279
995.34	0.272
995.76	0.277
996.18	0.277
996.60	0.276
997.02	0.270
997.44	0.270
997.86	0.272
998.28	0.270
998.70	0.269
999.12	0.267
999.55	0.266
999.97	0.267
1000.39	0.264
1000.81	0.270
1001.23	0.268
1001.65	0.271
1002.07	0.266
1002.49	0.269
1002.91	0.262
1003.33	0.261
1003.75	0.257
1004.17	0.263
1004.59	0.257
1005.01	0.255
1005.43	0.268
1005.85	0.258
1006.28	0.256
1006.70	0.253
1007.12	0.253
1007.54	0.257
1007.96	0.248
1008.38	0.256
1008.80	0.243
1009.22	0.252
1009.64	0.247
1010.06	0.256
1010.48	0.251
1010.90	0.247
1011.32	0.239
1011.74	0.240
1012.16	0.246
1012.58	0.243
1013.00	0.238
1013.42	0.229
1013.84	0.237
1014.26	0.240
1014.67	0.243
1015.09	0.236
1015.51	0.231
1015.93	0.240
1016.35	0.226
1016.77	0.231
1017.19	0.229
1017.61	0.237
1018.03	0.238
1018.45	0.235
1018.87	0.237
1019.29	0.234
1019.71	0.232
1020.13	0.230
1020.55	0.221
1020.97	0.225
1021.38	0.224
1021.80	0.214
1022.22	0.224
1022.64	0.212
1023.06	0.209
1023.48	0.215
1023.90	0.218
1024.32	0.205
1024.74	0.223
1025.15	0.211
1025.57	0.207
1025.99	0.216
1026.41	0.215
1026.83	0.222
1027.25	0.210
1027.67	0.208
1028.08	0.199
1028.50	0.211
1028.92	0.204
1029.34	0.203
1029.76	0.219
1030.18	0.218
1030.60	0.224
1031.01	0.210
1031.43	0.210
1031.85	0.210
1032.27	0.216
1032.69	0.203
1033.10	0.212
1033.52	0.199
1033.94	0.186
1034.36	0.203
1034.78	0.191
1035.19	0.198
1035.61	0.201
1036.03	0.198
1036.45	0.208
1036.87	0.195
1037.28	0.188
1037.70	0.182
1038.12	0.190
1038.54	0.177
1038.95	0.187
1039.37	0.185
1039.79	0.186
1040.21	0.190
1040.62	0.196
1041.04	0.205
1041.46	0.190
1041.88	0.183
1042.29	0.182
1042.71	0.193
1043.13	0.192
1043.55	0.198
1043.96	0.200
1044.38	0.193
1044.80	0.200
1045.21	0.185
1045.63	0.177
1046.05	0.167
1046.47	0.181
1046.88	0.186
1047.30	0.186
1047.72	0.162
1048.13	0.175
1048.55	0.184
1048.97	0.168
1049.38	0.209
1049.80	0.179
1050.22	0.199
1050.63	0.178
1051.05	0.191
1051.47	0.175
1051.88	0.181
1052.30	0.181
1052.72	0.179
1053.13	0.190
1053.55	0.182
1053.97	0.174
1054.38	0.190
1054.80	0.192
1055.21	0.196
1055.63	0.188
1056.05	0.184
1056.46	0.166
1056.88	0.191
1057.29	0.199
1057.71	0.200
1058.13	0.203
1058.54	0.192
1058.96	0.167
1059.37	0.188
1059.79	0.210
1060.21	0.217
1060.62	0.205
1061.04	0.185
1061.45	0.246
1061.87	0.191
1062.28	0.215
1062.70	0.222
1063.12	0.185
1063.53	0.186
1063.95	0.203
1064.36	0.228
1064.78	0.212
1065.19	0.244
1065.61	0.228
1066.02	0.259
1066.44	0.301
1066.85	0.201
1067.27	0.244
1067.68	0.160
1068.10	0.226
1068.51	0.231
1068.93	0.255
1069.35	0.391
1069.76	0.380
1070.17	0.261
1070.59	0.277
1071.00	0.329
1071.42	0.207
1071.83	0.270
1072.25	0.260
1072.66	0.233
1073.08	0.351
1073.49	0.417
1073.91	0.326
1074.32	0.340
1074.74	0.247
1075.15	0.434
1075.57	0.217
1075.98	0.297
1076.40	0.254
1076.81	0.398
1077.22	0.311
1077.64	0.281
1078.05	0.317
1078.47	0.586
1078.88	0.465
1079.30	0.476
1079.71	-0.000
1080.12	0.842
1080.54	0.855
1080.95	0.590
1081.37	1.134
1081.78	0.481
1082.19	0.387
1082.61	0.862
1083.02	-0.000
1083.44	0.802
1083.85	0.540
1084.26	0.732
1084.68	-0.000
1085.09	0.777
1085.50	-0.000
1085.92	-0.000
1086.33	-0.000
1086.74	0.577
1087.16	-0.000
1087.57	-0.000
1087.98	0.869
1088.40	-0.000
1088.81	1.863
1089.22	-0.000
1089.64	-0.000
1090.05	-0.000
1090.46	-0.000
1090.88	-0.000
1091.29	0.467
1091.70	-0.000
1092.12	-0.000
1092.53	-0.000
1092.94	-0.000
1093.36	-0.000
1093.77	-0.000
1094.18	-0.000
1094.59	-0.000
1095.01	-0.000
1095.42	-0.000
1095.83	-0.000
1096.25	-0.000
1096.66	-0.000
1097.07	-0.000
1097.48	-0.000
1097.90	-0.000
1098.31	-0.000
1098.72	-0.000
1099.13	-0.000
>>>>>End Processed Spectral Data<<<<<
