SpectraSuite Data File
++++++++++++++++++++++++++++++++++++
Date: Sun Apr 24 13:57:15 CEST 2016
User: spectrasuite
Dark Spectrum Present: Yes
Reference Spectrum Present: Yes
Number of Sampled Component Spectra: 1
Spectrometers: HR+C0708
Integration Time (usec): 1000 (HR+C0708)
Spectra Averaged: 10 (HR+C0708)
Boxcar Smoothing: 0 (HR+C0708)
Correct for Electrical Dark: No (HR+C0708)
Strobe/Lamp Enabled: No (HR+C0708)
Correct for Detector Non-linearity: No (HR+C0708)
Correct for Stray Light: No (HR+C0708)
Number of Pixels in Processed Spectrum: 2048
>>>>>Begin Processed Spectral Data<<<<<
188.76	-0.000
189.23	-0.000
189.70	-0.000
190.17	-0.000
190.64	-0.000
191.12	-0.000
191.59	-0.000
192.06	-0.000
192.53	-0.000
193.01	-0.000
193.48	1.383
193.95	-0.000
194.42	-0.000
194.90	-0.000
195.37	-0.000
195.84	-0.000
196.31	-0.000
196.78	-0.000
197.26	-0.000
197.73	-0.000
198.20	-0.000
198.67	-0.000
199.14	-0.000
199.62	-0.000
200.09	2.095
200.56	-0.000
201.03	-0.000
201.50	0.678
201.97	0.883
202.45	1.107
202.92	1.357
203.39	1.038
203.86	1.412
204.33	1.025
204.80	0.956
205.28	0.715
205.75	-0.000
206.22	-0.000
206.69	1.671
207.16	1.068
207.63	0.822
208.11	0.918
208.58	0.774
209.05	-0.000
209.52	1.089
209.99	1.160
210.46	0.875
210.93	-0.000
211.41	1.140
211.88	1.587
212.35	1.300
212.82	-0.000
213.29	0.839
213.76	0.641
214.23	1.656
214.70	1.487
215.18	-0.000
215.65	1.053
216.12	1.004
216.59	-0.000
217.06	1.303
217.53	0.809
218.00	1.396
218.47	1.001
218.94	1.095
219.41	1.868
219.89	1.022
220.36	1.457
220.83	1.380
221.30	-0.000
221.77	-0.000
222.24	1.038
222.71	-0.000
223.18	-0.000
223.65	1.499
224.12	-0.000
224.59	-0.000
225.06	1.689
225.54	1.129
226.01	1.238
226.48	1.767
226.95	1.850
227.42	1.599
227.89	-0.000
228.36	1.762
228.83	2.318
229.30	1.665
229.77	1.684
230.24	1.560
230.71	1.934
231.18	1.931
231.65	2.213
232.12	2.151
232.59	1.910
233.06	2.039
233.53	2.364
234.00	2.409
234.47	2.170
234.94	2.893
235.41	2.598
235.88	2.478
236.35	3.306
236.82	2.297
237.29	2.906
237.76	3.147
238.23	2.914
238.70	2.795
239.17	2.362
239.64	2.664
240.11	-0.000
240.58	2.482
241.05	2.666
241.52	2.866
241.99	3.240
242.46	2.778
242.93	2.690
243.40	2.744
243.87	3.021
244.34	2.416
244.81	2.938
245.28	-0.000
245.75	2.822
246.22	2.995
246.69	3.230
247.16	2.544
247.63	2.687
248.10	2.603
248.57	3.087
249.04	-0.000
249.51	2.824
249.98	-0.000
250.45	3.266
250.92	2.811
251.39	2.561
251.85	3.482
252.32	-0.000
252.79	2.821
253.26	2.946
253.73	3.880
254.20	3.594
254.67	2.687
255.14	3.281
255.61	-0.000
256.08	3.317
256.55	3.058
257.02	2.916
257.49	3.052
257.95	2.821
258.42	2.744
258.89	3.212
259.36	2.889
259.83	3.060
260.30	3.406
260.77	3.513
261.24	2.881
261.71	3.425
262.17	4.262
262.64	2.850
263.11	2.951
263.58	3.247
264.05	3.318
264.52	3.015
264.99	3.103
265.46	2.937
265.92	3.292
266.39	3.052
266.86	3.325
267.33	3.206
267.80	2.862
268.27	3.374
268.74	2.970
269.20	-0.000
269.67	3.127
270.14	2.554
270.61	2.975
271.08	3.034
271.55	2.845
272.01	2.800
272.48	2.980
272.95	3.214
273.42	2.921
273.89	2.936
274.36	3.068
274.82	2.609
275.29	2.683
275.76	2.866
276.23	2.808
276.70	2.914
277.16	2.880
277.63	2.790
278.10	2.795
278.57	2.758
279.04	2.587
279.50	2.633
279.97	2.731
280.44	2.469
280.91	2.704
281.38	2.721
281.84	2.766
282.31	2.735
282.78	3.624
283.25	2.730
283.72	2.435
284.18	2.643
284.65	2.710
285.12	2.551
285.59	2.543
286.05	2.595
286.52	2.568
286.99	2.659
287.46	2.652
287.92	2.630
288.39	2.482
288.86	2.516
289.33	2.477
289.79	2.731
290.26	2.576
290.73	2.470
291.20	2.550
291.66	2.558
292.13	2.508
292.60	2.428
293.07	2.463
293.53	2.366
294.00	2.463
294.47	2.456
294.93	2.458
295.40	2.433
295.87	2.411
296.34	2.470
296.80	2.365
297.27	2.422
297.74	2.392
298.20	2.399
298.67	2.279
299.14	2.441
299.60	2.376
300.07	2.409
300.54	2.405
301.01	2.356
301.47	2.294
301.94	2.230
302.41	2.246
302.87	2.285
303.34	2.448
303.81	2.198
304.27	2.295
304.74	2.247
305.21	2.186
305.67	2.248
306.14	2.190
306.61	2.278
307.07	2.277
307.54	2.174
308.01	2.257
308.47	2.241
308.94	2.305
309.40	2.286
309.87	2.180
310.34	2.185
310.80	2.196
311.27	2.241
311.74	2.198
312.20	2.224
312.67	2.157
313.13	2.135
313.60	2.217
314.07	2.175
314.53	2.149
315.00	2.109
315.47	2.174
315.93	2.169
316.40	2.150
316.86	2.121
317.33	2.118
317.80	2.113
318.26	2.132
318.73	2.130
319.19	2.105
319.66	2.076
320.13	2.099
320.59	2.082
321.06	2.086
321.52	2.158
321.99	2.091
322.45	2.057
322.92	2.019
323.39	2.054
323.85	2.081
324.32	2.047
324.78	2.033
325.25	2.054
325.71	1.961
326.18	1.940
326.64	2.065
327.11	2.002
327.58	1.939
328.04	1.929
328.51	1.976
328.97	1.941
329.44	1.893
329.90	1.899
330.37	1.898
330.83	1.836
331.30	1.877
331.76	1.877
332.23	1.837
332.69	1.772
333.16	1.766
333.62	1.745
334.09	1.718
334.56	1.676
335.02	1.658
335.49	1.641
335.95	1.590
336.42	1.560
336.88	1.535
337.35	1.486
337.81	1.456
338.28	1.445
338.74	1.399
339.20	1.364
339.67	1.323
340.13	1.291
340.60	1.254
341.06	1.216
341.53	1.192
341.99	1.156
342.46	1.114
342.92	1.083
343.39	1.055
343.85	1.027
344.32	0.996
344.78	0.977
345.25	0.958
345.71	0.933
346.17	0.898
346.64	0.875
347.10	0.842
347.57	0.809
348.03	0.784
348.50	0.758
348.96	0.741
349.43	0.713
349.89	0.696
350.35	0.685
350.82	0.663
351.28	0.650
351.75	0.634
352.21	0.624
352.67	0.602
353.14	0.591
353.60	0.580
354.07	0.562
354.53	0.547
355.00	0.540
355.46	0.530
355.92	0.518
356.39	0.506
356.85	0.506
357.31	0.491
357.78	0.482
358.24	0.475
358.71	0.471
359.17	0.461
359.63	0.459
360.10	0.450
360.56	0.449
361.03	0.445
361.49	0.433
361.95	0.436
362.42	0.434
362.88	0.425
363.34	0.426
363.81	0.421
364.27	0.418
364.73	0.414
365.20	0.414
365.66	0.411
366.12	0.406
366.59	0.404
367.05	0.402
367.51	0.402
367.98	0.398
368.44	0.395
368.90	0.395
369.37	0.390
369.83	0.387
370.29	0.391
370.76	0.389
371.22	0.385
371.68	0.388
372.15	0.381
372.61	0.383
373.07	0.378
373.54	0.381
374.00	0.377
374.46	0.376
374.92	0.373
375.39	0.372
375.85	0.372
376.31	0.373
376.78	0.366
377.24	0.368
377.70	0.368
378.16	0.362
378.63	0.366
379.09	0.364
379.55	0.361
380.01	0.361
380.48	0.361
380.94	0.356
381.40	0.355
381.87	0.354
382.33	0.355
382.79	0.353
383.25	0.352
383.72	0.352
384.18	0.348
384.64	0.345
385.10	0.342
385.56	0.345
386.03	0.344
386.49	0.344
386.95	0.340
387.41	0.343
387.88	0.341
388.34	0.339
388.80	0.337
389.26	0.339
389.72	0.336
390.19	0.337
390.65	0.333
391.11	0.332
391.57	0.332
392.04	0.329
392.50	0.328
392.96	0.328
393.42	0.325
393.88	0.328
394.34	0.327
394.81	0.325
395.27	0.325
395.73	0.322
396.19	0.324
396.65	0.322
397.12	0.321
397.58	0.318
398.04	0.317
398.50	0.312
398.96	0.318
399.42	0.319
399.89	0.312
400.35	0.312
400.81	0.311
401.27	0.313
401.73	0.309
402.19	0.307
402.65	0.310
403.12	0.307
403.58	0.308
404.04	0.307
404.50	0.306
404.96	0.301
405.42	0.304
405.88	0.302
406.34	0.301
406.81	0.299
407.27	0.301
407.73	0.301
408.19	0.297
408.65	0.299
409.11	0.297
409.57	0.299
410.03	0.297
410.49	0.296
410.96	0.296
411.42	0.292
411.88	0.292
412.34	0.294
412.80	0.292
413.26	0.287
413.72	0.287
414.18	0.289
414.64	0.285
415.10	0.290
415.56	0.286
416.02	0.288
416.48	0.284
416.95	0.283
417.41	0.283
417.87	0.284
418.33	0.283
418.79	0.280
419.25	0.281
419.71	0.278
420.17	0.279
420.63	0.275
421.09	0.277
421.55	0.274
422.01	0.276
422.47	0.276
422.93	0.277
423.39	0.274
423.85	0.275
424.31	0.273
424.77	0.271
425.23	0.273
425.69	0.271
426.15	0.271
426.61	0.270
427.07	0.265
427.53	0.269
427.99	0.267
428.45	0.269
428.91	0.267
429.37	0.262
429.83	0.262
430.29	0.263
430.75	0.264
431.21	0.265
431.67	0.262
432.13	0.264
432.59	0.258
433.05	0.261
433.51	0.258
433.97	0.258
434.43	0.261
434.89	0.260
435.35	0.258
435.81	0.256
436.27	0.255
436.73	0.256
437.19	0.254
437.65	0.257
438.11	0.254
438.57	0.253
439.03	0.256
439.48	0.254
439.94	0.251
440.40	0.253
440.86	0.252
441.32	0.249
441.78	0.251
442.24	0.247
442.70	0.250
443.16	0.249
443.62	0.244
444.08	0.245
444.54	0.246
444.99	0.242
445.45	0.244
445.91	0.242
446.37	0.244
446.83	0.243
447.29	0.242
447.75	0.240
448.21	0.244
448.67	0.240
449.12	0.237
449.58	0.238
450.04	0.236
450.50	0.237
450.96	0.243
451.42	0.237
451.88	0.235
452.34	0.237
452.79	0.238
453.25	0.237
453.71	0.233
454.17	0.233
454.63	0.236
455.09	0.236
455.55	0.234
456.00	0.232
456.46	0.232
456.92	0.232
457.38	0.234
457.84	0.230
458.30	0.229
458.75	0.230
459.21	0.225
459.67	0.227
460.13	0.231
460.59	0.227
461.04	0.227
461.50	0.227
461.96	0.225
462.42	0.228
462.88	0.226
463.33	0.223
463.79	0.224
464.25	0.226
464.71	0.222
465.17	0.223
465.62	0.222
466.08	0.223
466.54	0.221
467.00	0.221
467.46	0.221
467.91	0.221
468.37	0.220
468.83	0.220
469.29	0.220
469.74	0.220
470.20	0.220
470.66	0.216
471.12	0.216
471.57	0.218
472.03	0.217
472.49	0.215
472.95	0.219
473.40	0.214
473.86	0.213
474.32	0.213
474.78	0.214
475.23	0.213
475.69	0.214
476.15	0.211
476.60	0.210
477.06	0.212
477.52	0.211
477.98	0.209
478.43	0.210
478.89	0.212
479.35	0.209
479.80	0.211
480.26	0.210
480.72	0.206
481.18	0.210
481.63	0.206
482.09	0.207
482.55	0.208
483.00	0.207
483.46	0.206
483.92	0.207
484.37	0.205
484.83	0.203
485.29	0.203
485.74	0.203
486.20	0.203
486.66	0.203
487.11	0.203
487.57	0.201
488.03	0.201
488.48	0.199
488.94	0.199
489.40	0.201
489.85	0.200
490.31	0.201
490.77	0.199
491.22	0.200
491.68	0.197
492.13	0.197
492.59	0.198
493.05	0.199
493.50	0.196
493.96	0.196
494.42	0.197
494.87	0.194
495.33	0.194
495.78	0.196
496.24	0.196
496.70	0.195
497.15	0.195
497.61	0.193
498.06	0.192
498.52	0.189
498.98	0.191
499.43	0.192
499.89	0.191
500.34	0.190
500.80	0.192
501.25	0.191
501.71	0.190
502.17	0.192
502.62	0.191
503.08	0.191
503.53	0.189
503.99	0.187
504.44	0.189
504.90	0.188
505.36	0.186
505.81	0.186
506.27	0.186
506.72	0.186
507.18	0.185
507.63	0.186
508.09	0.187
508.54	0.184
509.00	0.186
509.45	0.184
509.91	0.184
510.36	0.184
510.82	0.183
511.27	0.184
511.73	0.184
512.19	0.181
512.64	0.181
513.10	0.180
513.55	0.181
514.01	0.180
514.46	0.180
514.92	0.180
515.37	0.182
515.83	0.183
516.28	0.179
516.73	0.180
517.19	0.178
517.64	0.177
518.10	0.177
518.55	0.179
519.01	0.177
519.46	0.177
519.92	0.178
520.37	0.174
520.83	0.174
521.28	0.177
521.74	0.178
522.19	0.175
522.65	0.174
523.10	0.176
523.55	0.175
524.01	0.177
524.46	0.172
524.92	0.171
525.37	0.174
525.83	0.172
526.28	0.171
526.73	0.170
527.19	0.173
527.64	0.171
528.10	0.172
528.55	0.169
529.01	0.169
529.46	0.169
529.91	0.170
530.37	0.171
530.82	0.169
531.28	0.169
531.73	0.168
532.18	0.169
532.64	0.170
533.09	0.166
533.54	0.168
534.00	0.167
534.45	0.169
534.91	0.168
535.36	0.166
535.81	0.166
536.27	0.164
536.72	0.166
537.17	0.164
537.63	0.165
538.08	0.163
538.54	0.167
538.99	0.163
539.44	0.164
539.90	0.162
540.35	0.163
540.80	0.163
541.26	0.163
541.71	0.161
542.16	0.162
542.62	0.161
543.07	0.161
543.52	0.162
543.98	0.163
544.43	0.160
544.88	0.160
545.34	0.161
545.79	0.158
546.24	0.159
546.69	0.160
547.15	0.158
547.60	0.158
548.05	0.160
548.51	0.158
548.96	0.159
549.41	0.158
549.86	0.157
550.32	0.157
550.77	0.156
551.22	0.156
551.68	0.154
552.13	0.155
552.58	0.154
553.03	0.157
553.49	0.157
553.94	0.155
554.39	0.155
554.84	0.154
555.30	0.156
555.75	0.154
556.20	0.154
556.65	0.152
557.11	0.153
557.56	0.153
558.01	0.153
558.46	0.154
558.92	0.152
559.37	0.153
559.82	0.152
560.27	0.152
560.72	0.151
561.18	0.151
561.63	0.153
562.08	0.148
562.53	0.151
562.99	0.150
563.44	0.151
563.89	0.149
564.34	0.152
564.79	0.151
565.25	0.149
565.70	0.147
566.15	0.147
566.60	0.148
567.05	0.148
567.50	0.148
567.96	0.148
568.41	0.147
568.86	0.146
569.31	0.145
569.76	0.145
570.21	0.145
570.67	0.146
571.12	0.145
571.57	0.144
572.02	0.143
572.47	0.144
572.92	0.144
573.37	0.143
573.83	0.143
574.28	0.144
574.73	0.143
575.18	0.144
575.63	0.144
576.08	0.142
576.53	0.143
576.98	0.142
577.44	0.140
577.89	0.140
578.34	0.140
578.79	0.140
579.24	0.142
579.69	0.140
580.14	0.138
580.59	0.139
581.04	0.138
581.49	0.138
581.95	0.137
582.40	0.137
582.85	0.139
583.30	0.137
583.75	0.137
584.20	0.139
584.65	0.138
585.10	0.137
585.55	0.138
586.00	0.135
586.45	0.135
586.90	0.137
587.35	0.136
587.80	0.137
588.25	0.135
588.71	0.137
589.16	0.135
589.61	0.135
590.06	0.134
590.51	0.136
590.96	0.134
591.41	0.133
591.86	0.135
592.31	0.135
592.76	0.134
593.21	0.132
593.66	0.134
594.11	0.134
594.56	0.133
595.01	0.132
595.46	0.132
595.91	0.133
596.36	0.132
596.81	0.133
597.26	0.131
597.71	0.132
598.16	0.131
598.61	0.131
599.06	0.131
599.51	0.133
599.96	0.132
600.41	0.132
600.86	0.133
601.31	0.131
601.76	0.130
602.21	0.132
602.65	0.132
603.10	0.132
603.55	0.130
604.00	0.131
604.45	0.130
604.90	0.130
605.35	0.128
605.80	0.129
606.25	0.131
606.70	0.129
607.15	0.129
607.60	0.129
608.05	0.126
608.50	0.126
608.95	0.126
609.39	0.128
609.84	0.127
610.29	0.127
610.74	0.127
611.19	0.125
611.64	0.126
612.09	0.127
612.54	0.126
612.99	0.127
613.44	0.125
613.88	0.127
614.33	0.124
614.78	0.125
615.23	0.125
615.68	0.124
616.13	0.124
616.58	0.125
617.03	0.124
617.47	0.126
617.92	0.123
618.37	0.122
618.82	0.124
619.27	0.125
619.72	0.122
620.17	0.122
620.61	0.124
621.06	0.122
621.51	0.122
621.96	0.121
622.41	0.123
622.86	0.121
623.30	0.121
623.75	0.122
624.20	0.122
624.65	0.119
625.10	0.120
625.54	0.122
625.99	0.121
626.44	0.120
626.89	0.121
627.34	0.122
627.78	0.119
628.23	0.119
628.68	0.120
629.13	0.118
629.58	0.119
630.02	0.119
630.47	0.119
630.92	0.120
631.37	0.118
631.81	0.118
632.26	0.118
632.71	0.120
633.16	0.120
633.61	0.118
634.05	0.117
634.50	0.118
634.95	0.118
635.40	0.118
635.84	0.119
636.29	0.118
636.74	0.118
637.18	0.118
637.63	0.119
638.08	0.115
638.53	0.117
638.97	0.115
639.42	0.117
639.87	0.117
640.32	0.115
640.76	0.118
641.21	0.117
641.66	0.118
642.10	0.117
642.55	0.114
643.00	0.115
643.44	0.115
643.89	0.116
644.34	0.115
644.79	0.114
645.23	0.114
645.68	0.115
646.13	0.115
646.57	0.115
647.02	0.113
647.47	0.117
647.91	0.114
648.36	0.115
648.81	0.113
649.25	0.111
649.70	0.112
650.15	0.112
650.59	0.113
651.04	0.112
651.48	0.115
651.93	0.113
652.38	0.110
652.82	0.111
653.27	0.113
653.72	0.114
654.16	0.111
654.61	0.112
655.06	0.110
655.50	0.111
655.95	0.108
656.39	0.106
656.84	0.108
657.29	0.113
657.73	0.111
658.18	0.110
658.62	0.112
659.07	0.111
659.52	0.110
659.96	0.110
660.41	0.112
660.85	0.109
661.30	0.110
661.74	0.111
662.19	0.108
662.64	0.112
663.08	0.110
663.53	0.109
663.97	0.108
664.42	0.108
664.86	0.109
665.31	0.109
665.75	0.107
666.20	0.109
666.65	0.108
667.09	0.111
667.54	0.109
667.98	0.108
668.43	0.107
668.87	0.107
669.32	0.107
669.76	0.106
670.21	0.109
670.65	0.105
671.10	0.107
671.54	0.107
671.99	0.106
672.43	0.106
672.88	0.107
673.32	0.107
673.77	0.106
674.21	0.105
674.66	0.105
675.10	0.106
675.55	0.104
675.99	0.107
676.44	0.106
676.88	0.105
677.33	0.105
677.77	0.106
678.22	0.104
678.66	0.104
679.11	0.104
679.55	0.106
679.99	0.103
680.44	0.105
680.88	0.104
681.33	0.102
681.77	0.103
682.22	0.106
682.66	0.103
683.11	0.104
683.55	0.103
683.99	0.102
684.44	0.102
684.88	0.102
685.33	0.104
685.77	0.103
686.21	0.104
686.66	0.102
687.10	0.101
687.55	0.100
687.99	0.104
688.44	0.103
688.88	0.103
689.32	0.102
689.77	0.100
690.21	0.102
690.65	0.104
691.10	0.101
691.54	0.103
691.99	0.101
692.43	0.100
692.87	0.101
693.32	0.102
693.76	0.102
694.20	0.103
694.65	0.102
695.09	0.101
695.53	0.100
695.98	0.102
696.42	0.101
696.86	0.101
697.31	0.099
697.75	0.101
698.19	0.100
698.64	0.100
699.08	0.101
699.52	0.099
699.97	0.101
700.41	0.099
700.85	0.100
701.30	0.098
701.74	0.101
702.18	0.099
702.63	0.098
703.07	0.100
703.51	0.099
703.96	0.099
704.40	0.100
704.84	0.100
705.28	0.098
705.73	0.099
706.17	0.098
706.61	0.099
707.06	0.098
707.50	0.099
707.94	0.098
708.38	0.096
708.83	0.100
709.27	0.100
709.71	0.099
710.15	0.097
710.60	0.097
711.04	0.098
711.48	0.102
711.92	0.100
712.37	0.099
712.81	0.101
713.25	0.099
713.69	0.099
714.13	0.101
714.58	0.098
715.02	0.098
715.46	0.099
715.90	0.097
716.35	0.095
716.79	0.099
717.23	0.099
717.67	0.097
718.11	0.099
718.56	0.098
719.00	0.097
719.44	0.098
719.88	0.097
720.32	0.098
720.76	0.102
721.21	0.097
721.65	0.099
722.09	0.099
722.53	0.098
722.97	0.100
723.41	0.098
723.86	0.100
724.30	0.099
724.74	0.102
725.18	0.098
725.62	0.099
726.06	0.099
726.50	0.098
726.95	0.096
727.39	0.098
727.83	0.097
728.27	0.100
728.71	0.101
729.15	0.100
729.59	0.101
730.03	0.099
730.48	0.101
730.92	0.097
731.36	0.101
731.80	0.099
732.24	0.100
732.68	0.099
733.12	0.099
733.56	0.098
734.00	0.099
734.44	0.100
734.89	0.101
735.33	0.102
735.77	0.102
736.21	0.101
736.65	0.098
737.09	0.101
737.53	0.103
737.97	0.100
738.41	0.102
738.85	0.103
739.29	0.104
739.73	0.099
740.17	0.102
740.61	0.101
741.05	0.101
741.49	0.102
741.93	0.101
742.37	0.097
742.81	0.100
743.26	0.101
743.70	0.099
744.14	0.100
744.58	0.100
745.02	0.100
745.46	0.102
745.90	0.102
746.34	0.103
746.78	0.100
747.22	0.101
747.66	0.099
748.10	0.100
748.54	0.097
748.98	0.099
749.42	0.100
749.86	0.102
750.29	0.098
750.73	0.097
751.17	0.098
751.61	0.096
752.05	0.100
752.49	0.098
752.93	0.099
753.37	0.097
753.81	0.097
754.25	0.097
754.69	0.097
755.13	0.097
755.57	0.099
756.01	0.099
756.45	0.098
756.89	0.097
757.33	0.100
757.77	0.098
758.21	0.099
758.64	0.095
759.08	0.095
759.52	0.099
759.96	0.099
760.40	0.096
760.84	0.093
761.28	0.096
761.72	0.097
762.16	0.097
762.60	0.094
763.03	0.096
763.47	0.096
763.91	0.098
764.35	0.094
764.79	0.096
765.23	0.093
765.67	0.097
766.11	0.092
766.54	0.091
766.98	0.096
767.42	0.096
767.86	0.094
768.30	0.095
768.74	0.096
769.17	0.097
769.61	0.096
770.05	0.094
770.49	0.097
770.93	0.094
771.37	0.096
771.80	0.094
772.24	0.095
772.68	0.093
773.12	0.094
773.56	0.094
774.00	0.093
774.43	0.091
774.87	0.094
775.31	0.090
775.75	0.093
776.19	0.094
776.62	0.090
777.06	0.095
777.50	0.094
777.94	0.092
778.37	0.093
778.81	0.094
779.25	0.093
779.69	0.094
780.13	0.092
780.56	0.091
781.00	0.091
781.44	0.094
781.88	0.095
782.31	0.092
782.75	0.092
783.19	0.093
783.63	0.090
784.06	0.090
784.50	0.092
784.94	0.090
785.37	0.094
785.81	0.096
786.25	0.090
786.69	0.091
787.12	0.091
787.56	0.086
788.00	0.094
788.43	0.093
788.87	0.092
789.31	0.092
789.75	0.093
790.18	0.089
790.62	0.091
791.06	0.091
791.49	0.091
791.93	0.093
792.37	0.093
792.80	0.089
793.24	0.089
793.68	0.092
794.11	0.092
794.55	0.092
794.99	0.092
795.42	0.093
795.86	0.096
796.30	0.093
796.73	0.092
797.17	0.094
797.61	0.091
798.04	0.089
798.48	0.093
798.91	0.091
799.35	0.087
799.79	0.097
800.22	0.091
800.66	0.087
801.10	0.093
801.53	0.089
801.97	0.093
802.40	0.091
802.84	0.091
803.28	0.090
803.71	0.089
804.15	0.090
804.58	0.089
805.02	0.092
805.46	0.088
805.89	0.087
806.33	0.088
806.76	0.090
807.20	0.090
807.63	0.092
808.07	0.095
808.51	0.089
808.94	0.091
809.38	0.089
809.81	0.090
810.25	0.090
810.68	0.090
811.12	0.089
811.55	0.090
811.99	0.086
812.42	0.091
812.86	0.086
813.29	0.089
813.73	0.088
814.17	0.089
814.60	0.092
815.04	0.089
815.47	0.090
815.91	0.090
816.34	0.091
816.78	0.088
817.21	0.089
817.65	0.092
818.08	0.090
818.52	0.091
818.95	0.091
819.39	0.094
819.82	0.087
820.25	0.088
820.69	0.087
821.12	0.091
821.56	0.086
821.99	0.087
822.43	0.090
822.86	0.092
823.30	0.094
823.73	0.089
824.17	0.089
824.60	0.087
825.04	0.094
825.47	0.090
825.90	0.091
826.34	0.090
826.77	0.093
827.21	0.092
827.64	0.088
828.08	0.088
828.51	0.090
828.94	0.088
829.38	0.087
829.81	0.091
830.25	0.095
830.68	0.095
831.11	0.094
831.55	0.094
831.98	0.095
832.42	0.095
832.85	0.094
833.28	0.095
833.72	0.095
834.15	0.090
834.58	0.094
835.02	0.094
835.45	0.098
835.88	0.097
836.32	0.098
836.75	0.097
837.19	0.096
837.62	0.095
838.05	0.096
838.49	0.093
838.92	0.095
839.35	0.093
839.79	0.094
840.22	0.092
840.65	0.093
841.09	0.097
841.52	0.095
841.95	0.092
842.39	0.097
842.82	0.094
843.25	0.095
843.68	0.095
844.12	0.098
844.55	0.094
844.98	0.092
845.42	0.095
845.85	0.093
846.28	0.095
846.71	0.094
847.15	0.096
847.58	0.095
848.01	0.098
848.45	0.099
848.88	0.098
849.31	0.094
849.74	0.096
850.18	0.097
850.61	0.097
851.04	0.098
851.47	0.093
851.91	0.100
852.34	0.098
852.77	0.095
853.20	0.096
853.64	0.093
854.07	0.100
854.50	0.096
854.93	0.101
855.36	0.099
855.80	0.094
856.23	0.097
856.66	0.100
857.09	0.098
857.52	0.098
857.96	0.091
858.39	0.095
858.82	0.091
859.25	0.094
859.68	0.101
860.12	0.097
860.55	0.096
860.98	0.097
861.41	0.096
861.84	0.101
862.27	0.092
862.71	0.098
863.14	0.098
863.57	0.093
864.00	0.094
864.43	0.103
864.86	0.097
865.30	0.103
865.73	0.096
866.16	0.097
866.59	0.101
867.02	0.098
867.45	0.098
867.88	0.099
868.31	0.097
868.75	0.096
869.18	0.098
869.61	0.105
870.04	0.099
870.47	0.103
870.90	0.100
871.33	0.099
871.76	0.097
872.19	0.098
872.62	0.099
873.06	0.094
873.49	0.104
873.92	0.102
874.35	0.104
874.78	0.099
875.21	0.101
875.64	0.096
876.07	0.107
876.50	0.103
876.93	0.105
877.36	0.104
877.79	0.099
878.22	0.098
878.65	0.101
879.08	0.098
879.51	0.106
879.94	0.096
880.37	0.101
880.80	0.107
881.23	0.094
881.67	0.102
882.10	0.099
882.53	0.099
882.96	0.105
883.39	0.103
883.82	0.098
884.25	0.103
884.68	0.104
885.11	0.105
885.54	0.102
885.97	0.102
886.39	0.101
886.82	0.100
887.25	0.099
887.68	0.104
888.11	0.104
888.54	0.099
888.97	0.104
889.40	0.102
889.83	0.100
890.26	0.099
890.69	0.098
891.12	0.098
891.55	0.104
891.98	0.107
892.41	0.101
892.84	0.105
893.27	0.103
893.70	0.102
894.13	0.111
894.56	0.106
894.98	0.105
895.41	0.109
895.84	0.107
896.27	0.105
896.70	0.106
897.13	0.105
897.56	0.108
897.99	0.105
898.42	0.100
898.85	0.108
899.27	0.108
899.70	0.104
900.13	0.106
900.56	0.107
900.99	0.106
901.42	0.111
901.85	0.111
902.28	0.110
902.70	0.108
903.13	0.106
903.56	0.110
903.99	0.102
904.42	0.107
904.85	0.109
905.27	0.110
905.70	0.110
906.13	0.110
906.56	0.105
906.99	0.110
907.42	0.106
907.84	0.105
908.27	0.108
908.70	0.112
909.13	0.106
909.56	0.105
909.98	0.105
910.41	0.107
910.84	0.105
911.27	0.112
911.70	0.105
912.12	0.105
912.55	0.107
912.98	0.106
913.41	0.109
913.84	0.106
914.26	0.107
914.69	0.108
915.12	0.108
915.55	0.106
915.97	0.105
916.40	0.108
916.83	0.105
917.26	0.106
917.68	0.114
918.11	0.112
918.54	0.106
918.97	0.109
919.39	0.108
919.82	0.103
920.25	0.106
920.67	0.108
921.10	0.110
921.53	0.109
921.96	0.112
922.38	0.108
922.81	0.110
923.24	0.114
923.66	0.107
924.09	0.110
924.52	0.114
924.94	0.113
925.37	0.115
925.80	0.115
926.22	0.114
926.65	0.113
927.08	0.116
927.50	0.116
927.93	0.120
928.36	0.113
928.78	0.116
929.21	0.112
929.64	0.118
930.06	0.124
930.49	0.123
930.92	0.121
931.34	0.124
931.77	0.125
932.20	0.120
932.62	0.119
933.05	0.125
933.47	0.129
933.90	0.127
934.33	0.126
934.75	0.130
935.18	0.129
935.61	0.131
936.03	0.134
936.46	0.135
936.88	0.133
937.31	0.137
937.73	0.136
938.16	0.136
938.59	0.141
939.01	0.144
939.44	0.146
939.86	0.142
940.29	0.150
940.71	0.149
941.14	0.153
941.57	0.151
941.99	0.149
942.42	0.155
942.84	0.153
943.27	0.161
943.69	0.164
944.12	0.159
944.54	0.164
944.97	0.163
945.39	0.165
945.82	0.166
946.24	0.176
946.67	0.171
947.09	0.171
947.52	0.177
947.94	0.176
948.37	0.180
948.79	0.182
949.22	0.183
949.64	0.187
950.07	0.192
950.49	0.192
950.92	0.195
951.34	0.196
951.77	0.202
952.19	0.197
952.62	0.208
953.04	0.208
953.47	0.213
953.89	0.215
954.32	0.216
954.74	0.217
955.17	0.211
955.59	0.226
956.01	0.228
956.44	0.226
956.86	0.232
957.29	0.233
957.71	0.241
958.14	0.237
958.56	0.238
958.98	0.246
959.41	0.241
959.83	0.246
960.26	0.244
960.68	0.251
961.10	0.252
961.53	0.252
961.95	0.254
962.38	0.252
962.80	0.250
963.22	0.253
963.65	0.250
964.07	0.251
964.50	0.261
964.92	0.259
965.34	0.261
965.77	0.261
966.19	0.258
966.61	0.261
967.04	0.262
967.46	0.263
967.88	0.268
968.31	0.259
968.73	0.266
969.15	0.258
969.58	0.262
970.00	0.264
970.42	0.264
970.85	0.261
971.27	0.265
971.69	0.267
972.12	0.266
972.54	0.264
972.96	0.268
973.39	0.270
973.81	0.273
974.23	0.268
974.65	0.264
975.08	0.273
975.50	0.272
975.92	0.268
976.35	0.272
976.77	0.270
977.19	0.265
977.61	0.268
978.04	0.264
978.46	0.270
978.88	0.267
979.30	0.271
979.73	0.266
980.15	0.267
980.57	0.278
980.99	0.272
981.42	0.271
981.84	0.271
982.26	0.270
982.68	0.266
983.11	0.264
983.53	0.262
983.95	0.265
984.37	0.268
984.79	0.266
985.22	0.265
985.64	0.267
986.06	0.263
986.48	0.265
986.90	0.266
987.33	0.258
987.75	0.259
988.17	0.258
988.59	0.264
989.01	0.261
989.43	0.254
989.86	0.262
990.28	0.267
990.70	0.266
991.12	0.260
991.54	0.262
991.96	0.250
992.39	0.261
992.81	0.252
993.23	0.254
993.65	0.250
994.07	0.251
994.49	0.251
994.91	0.254
995.34	0.242
995.76	0.250
996.18	0.252
996.60	0.247
997.02	0.252
997.44	0.248
997.86	0.253
998.28	0.243
998.70	0.251
999.12	0.248
999.55	0.243
999.97	0.243
1000.39	0.243
1000.81	0.246
1001.23	0.242
1001.65	0.243
1002.07	0.247
1002.49	0.246
1002.91	0.241
1003.33	0.242
1003.75	0.240
1004.17	0.243
1004.59	0.236
1005.01	0.234
1005.43	0.239
1005.85	0.228
1006.28	0.228
1006.70	0.229
1007.12	0.230
1007.54	0.231
1007.96	0.224
1008.38	0.231
1008.80	0.227
1009.22	0.227
1009.64	0.227
1010.06	0.228
1010.48	0.226
1010.90	0.229
1011.32	0.216
1011.74	0.220
1012.16	0.221
1012.58	0.224
1013.00	0.214
1013.42	0.214
1013.84	0.209
1014.26	0.210
1014.67	0.213
1015.09	0.216
1015.51	0.212
1015.93	0.211
1016.35	0.209
1016.77	0.213
1017.19	0.208
1017.61	0.206
1018.03	0.205
1018.45	0.206
1018.87	0.213
1019.29	0.210
1019.71	0.202
1020.13	0.207
1020.55	0.207
1020.97	0.196
1021.38	0.189
1021.80	0.203
1022.22	0.199
1022.64	0.189
1023.06	0.189
1023.48	0.193
1023.90	0.186
1024.32	0.178
1024.74	0.187
1025.15	0.193
1025.57	0.189
1025.99	0.187
1026.41	0.199
1026.83	0.198
1027.25	0.182
1027.67	0.193
1028.08	0.185
1028.50	0.182
1028.92	0.170
1029.34	0.177
1029.76	0.187
1030.18	0.179
1030.60	0.200
1031.01	0.187
1031.43	0.182
1031.85	0.181
1032.27	0.182
1032.69	0.176
1033.10	0.185
1033.52	0.176
1033.94	0.171
1034.36	0.168
1034.78	0.183
1035.19	0.172
1035.61	0.174
1036.03	0.164
1036.45	0.178
1036.87	0.177
1037.28	0.163
1037.70	0.167
1038.12	0.161
1038.54	0.168
1038.95	0.163
1039.37	0.153
1039.79	0.154
1040.21	0.166
1040.62	0.175
1041.04	0.170
1041.46	0.161
1041.88	0.155
1042.29	0.166
1042.71	0.166
1043.13	0.175
1043.55	0.151
1043.96	0.161
1044.38	0.169
1044.80	0.160
1045.21	0.140
1045.63	0.127
1046.05	0.146
1046.47	0.162
1046.88	0.142
1047.30	0.161
1047.72	0.156
1048.13	0.159
1048.55	0.136
1048.97	0.154
1049.38	0.176
1049.80	0.139
1050.22	0.163
1050.63	0.145
1051.05	0.167
1051.47	0.141
1051.88	0.158
1052.30	0.157
1052.72	0.149
1053.13	0.148
1053.55	0.158
1053.97	0.136
1054.38	0.140
1054.80	0.165
1055.21	0.153
1055.63	0.150
1056.05	0.143
1056.46	0.158
1056.88	0.167
1057.29	0.165
1057.71	0.161
1058.13	0.148
1058.54	0.148
1058.96	0.138
1059.37	0.165
1059.79	0.169
1060.21	0.157
1060.62	0.142
1061.04	0.170
1061.45	0.158
1061.87	0.114
1062.28	0.146
1062.70	0.217
1063.12	0.147
1063.53	0.159
1063.95	0.192
1064.36	0.239
1064.78	0.261
1065.19	0.181
1065.61	0.173
1066.02	0.237
1066.44	0.176
1066.85	0.154
1067.27	0.208
1067.68	0.193
1068.10	0.120
1068.51	0.180
1068.93	0.260
1069.35	0.254
1069.76	0.171
1070.17	0.216
1070.59	0.173
1071.00	0.169
1071.42	0.169
1071.83	0.275
1072.25	0.348
1072.66	0.213
1073.08	0.225
1073.49	0.355
1073.91	0.305
1074.32	0.231
1074.74	0.333
1075.15	0.534
1075.57	0.212
1075.98	0.286
1076.40	0.198
1076.81	0.315
1077.22	0.200
1077.64	0.312
1078.05	0.536
1078.47	0.418
1078.88	0.247
1079.30	0.359
1079.71	1.114
1080.12	0.319
1080.54	0.666
1080.95	0.590
1081.37	1.092
1081.78	0.166
1082.19	0.605
1082.61	0.911
1083.02	0.269
1083.44	0.437
1083.85	0.486
1084.26	1.324
1084.68	0.937
1085.09	0.619
1085.50	-0.000
1085.92	-0.000
1086.33	0.899
1086.74	0.500
1087.16	-0.000
1087.57	0.422
1087.98	0.359
1088.40	-0.000
1088.81	-0.000
1089.22	-0.000
1089.64	1.012
1090.05	-0.000
1090.46	-0.000
1090.88	-0.000
1091.29	0.937
1091.70	-0.000
1092.12	0.486
1092.53	1.663
1092.94	-0.000
1093.36	-0.000
1093.77	-0.000
1094.18	0.874
1094.59	-0.000
1095.01	-0.000
1095.42	1.627
1095.83	-0.000
1096.25	-0.000
1096.66	-0.000
1097.07	-0.000
1097.48	1.242
1097.90	-0.000
1098.31	-0.000
1098.72	-0.000
1099.13	-0.000
>>>>>End Processed Spectral Data<<<<<
