SpectraSuite Data File
++++++++++++++++++++++++++++++++++++
Date: Sun Apr 24 14:54:31 CEST 2016
User: spectrasuite
Dark Spectrum Present: Yes
Reference Spectrum Present: Yes
Number of Sampled Component Spectra: 1
Spectrometers: HR+C0708
Integration Time (usec): 1000 (HR+C0708)
Spectra Averaged: 10 (HR+C0708)
Boxcar Smoothing: 0 (HR+C0708)
Correct for Electrical Dark: No (HR+C0708)
Strobe/Lamp Enabled: No (HR+C0708)
Correct for Detector Non-linearity: No (HR+C0708)
Correct for Stray Light: No (HR+C0708)
Number of Pixels in Processed Spectrum: 2048
>>>>>Begin Processed Spectral Data<<<<<
188.76	-0.000
189.23	-0.000
189.70	1.580
190.17	-0.000
190.64	-0.000
191.12	-0.000
191.59	-0.000
192.06	-0.000
192.53	-0.000
193.01	-0.000
193.48	-0.000
193.95	-0.000
194.42	-0.000
194.90	0.772
195.37	-0.000
195.84	-0.000
196.31	-0.000
196.78	-0.000
197.26	-0.000
197.73	-0.000
198.20	-0.000
198.67	-0.000
199.14	-0.000
199.62	-0.000
200.09	0.981
200.56	-0.000
201.03	1.520
201.50	1.595
201.97	-0.000
202.45	-0.000
202.92	0.929
203.39	0.750
203.86	1.600
204.33	-0.000
204.80	-0.000
205.28	0.987
205.75	-0.000
206.22	0.918
206.69	0.999
207.16	-0.000
207.63	1.154
208.11	0.802
208.58	1.320
209.05	0.920
209.52	-0.000
209.99	-0.000
210.46	-0.000
210.93	-0.000
211.41	0.641
211.88	1.525
212.35	2.379
212.82	-0.000
213.29	1.288
213.76	1.311
214.23	-0.000
214.70	-0.000
215.18	-0.000
215.65	0.814
216.12	1.176
216.59	1.876
217.06	1.572
217.53	-0.000
218.00	1.546
218.47	1.708
218.94	-0.000
219.41	-0.000
219.89	-0.000
220.36	-0.000
220.83	2.128
221.30	-0.000
221.77	1.517
222.24	0.979
222.71	-0.000
223.18	-0.000
223.65	1.110
224.12	-0.000
224.59	-0.000
225.06	-0.000
225.54	1.547
226.01	1.201
226.48	-0.000
226.95	1.962
227.42	1.328
227.89	-0.000
228.36	1.391
228.83	-0.000
229.30	1.838
229.77	1.823
230.24	2.175
230.71	2.111
231.18	2.760
231.65	-0.000
232.12	1.783
232.59	2.250
233.06	-0.000
233.53	2.028
234.00	2.108
234.47	2.741
234.94	-0.000
235.41	-0.000
235.88	-0.000
236.35	3.673
236.82	2.763
237.29	2.304
237.76	2.899
238.23	-0.000
238.70	2.289
239.17	2.218
239.64	-0.000
240.11	-0.000
240.58	3.211
241.05	2.732
241.52	2.800
241.99	-0.000
242.46	2.415
242.93	-0.000
243.40	2.790
243.87	2.596
244.34	2.384
244.81	2.809
245.28	4.645
245.75	-0.000
246.22	-0.000
246.69	2.970
247.16	3.210
247.63	2.895
248.10	3.030
248.57	-0.000
249.04	4.228
249.51	3.307
249.98	-0.000
250.45	2.914
250.92	2.882
251.39	-0.000
251.85	3.122
252.32	-0.000
252.79	3.018
253.26	3.115
253.73	-0.000
254.20	2.992
254.67	2.893
255.14	-0.000
255.61	3.064
256.08	2.949
256.55	3.535
257.02	3.099
257.49	-0.000
257.95	2.828
258.42	2.874
258.89	-0.000
259.36	2.940
259.83	2.897
260.30	-0.000
260.77	3.903
261.24	2.985
261.71	3.344
262.17	3.253
262.64	3.110
263.11	3.630
263.58	-0.000
264.05	3.940
264.52	2.918
264.99	3.044
265.46	3.333
265.92	3.074
266.39	2.970
266.86	4.085
267.33	2.931
267.80	2.865
268.27	3.810
268.74	3.096
269.20	-0.000
269.67	2.946
270.14	2.809
270.61	3.191
271.08	2.989
271.55	2.913
272.01	3.037
272.48	2.885
272.95	3.032
273.42	2.808
273.89	3.228
274.36	3.028
274.82	2.514
275.29	2.711
275.76	2.858
276.23	2.731
276.70	2.728
277.16	2.717
277.63	2.653
278.10	2.833
278.57	2.780
279.04	2.563
279.50	2.693
279.97	2.646
280.44	2.454
280.91	2.656
281.38	2.669
281.84	2.636
282.31	2.679
282.78	2.826
283.25	2.623
283.72	2.556
284.18	2.647
284.65	2.613
285.12	2.541
285.59	2.444
286.05	2.625
286.52	2.469
286.99	2.483
287.46	2.524
287.92	2.460
288.39	2.471
288.86	2.561
289.33	2.411
289.79	2.536
290.26	2.379
290.73	2.437
291.20	2.463
291.66	2.418
292.13	2.410
292.60	2.380
293.07	2.344
293.53	2.236
294.00	2.391
294.47	2.358
294.93	2.335
295.40	2.299
295.87	2.323
296.34	2.473
296.80	2.235
297.27	2.241
297.74	2.359
298.20	2.278
298.67	2.241
299.14	2.336
299.60	2.263
300.07	2.232
300.54	2.212
301.01	2.203
301.47	2.203
301.94	2.162
302.41	2.191
302.87	2.219
303.34	2.221
303.81	2.130
304.27	2.155
304.74	2.093
305.21	2.105
305.67	2.121
306.14	2.095
306.61	2.143
307.07	2.063
307.54	2.079
308.01	2.117
308.47	2.109
308.94	2.073
309.40	2.142
309.87	2.051
310.34	2.018
310.80	2.110
311.27	2.085
311.74	2.088
312.20	2.067
312.67	2.063
313.13	2.063
313.60	2.066
314.07	2.026
314.53	2.007
315.00	1.971
315.47	2.052
315.93	2.038
316.40	1.982
316.86	2.019
317.33	2.013
317.80	1.998
318.26	2.045
318.73	2.020
319.19	1.983
319.66	1.967
320.13	1.935
320.59	1.921
321.06	1.977
321.52	1.961
321.99	1.952
322.45	1.926
322.92	1.886
323.39	1.910
323.85	1.894
324.32	1.896
324.78	1.896
325.25	1.895
325.71	1.840
326.18	1.850
326.64	1.881
327.11	1.852
327.58	1.833
328.04	1.820
328.51	1.857
328.97	1.784
329.44	1.781
329.90	1.775
330.37	1.781
330.83	1.731
331.30	1.778
331.76	1.704
332.23	1.702
332.69	1.726
333.16	1.664
333.62	1.672
334.09	1.647
334.56	1.614
335.02	1.635
335.49	1.594
335.95	1.557
336.42	1.540
336.88	1.519
337.35	1.499
337.81	1.484
338.28	1.457
338.74	1.459
339.20	1.418
339.67	1.390
340.13	1.382
340.60	1.335
341.06	1.301
341.53	1.293
341.99	1.270
342.46	1.232
342.92	1.210
343.39	1.181
343.85	1.166
344.32	1.138
344.78	1.116
345.25	1.107
345.71	1.076
346.17	1.051
346.64	1.031
347.10	1.000
347.57	0.968
348.03	0.956
348.50	0.927
348.96	0.904
349.43	0.883
349.89	0.864
350.35	0.857
350.82	0.835
351.28	0.819
351.75	0.807
352.21	0.783
352.67	0.764
353.14	0.767
353.60	0.740
354.07	0.736
354.53	0.720
355.00	0.708
355.46	0.696
355.92	0.688
356.39	0.673
356.85	0.668
357.31	0.653
357.78	0.647
358.24	0.640
358.71	0.626
359.17	0.621
359.63	0.622
360.10	0.613
360.56	0.611
361.03	0.600
361.49	0.594
361.95	0.591
362.42	0.586
362.88	0.583
363.34	0.580
363.81	0.571
364.27	0.569
364.73	0.568
365.20	0.563
365.66	0.562
366.12	0.561
366.59	0.558
367.05	0.555
367.51	0.554
367.98	0.548
368.44	0.549
368.90	0.543
369.37	0.543
369.83	0.539
370.29	0.537
370.76	0.537
371.22	0.536
371.68	0.532
372.15	0.532
372.61	0.524
373.07	0.523
373.54	0.522
374.00	0.521
374.46	0.516
374.92	0.515
375.39	0.517
375.85	0.513
376.31	0.513
376.78	0.510
377.24	0.512
377.70	0.506
378.16	0.506
378.63	0.508
379.09	0.501
379.55	0.501
380.01	0.502
380.48	0.498
380.94	0.498
381.40	0.495
381.87	0.492
382.33	0.491
382.79	0.487
383.25	0.485
383.72	0.488
384.18	0.484
384.64	0.483
385.10	0.480
385.56	0.482
386.03	0.480
386.49	0.477
386.95	0.476
387.41	0.473
387.88	0.475
388.34	0.472
388.80	0.472
389.26	0.469
389.72	0.471
390.19	0.472
390.65	0.463
391.11	0.463
391.57	0.462
392.04	0.459
392.50	0.459
392.96	0.457
393.42	0.456
393.88	0.460
394.34	0.454
394.81	0.450
395.27	0.450
395.73	0.451
396.19	0.452
396.65	0.446
397.12	0.445
397.58	0.447
398.04	0.442
398.50	0.442
398.96	0.443
399.42	0.440
399.89	0.440
400.35	0.439
400.81	0.435
401.27	0.435
401.73	0.432
402.19	0.430
402.65	0.431
403.12	0.430
403.58	0.429
404.04	0.430
404.50	0.428
404.96	0.427
405.42	0.425
405.88	0.421
406.34	0.421
406.81	0.423
407.27	0.420
407.73	0.423
408.19	0.419
408.65	0.415
409.11	0.414
409.57	0.417
410.03	0.412
410.49	0.414
410.96	0.415
411.42	0.410
411.88	0.410
412.34	0.405
412.80	0.409
413.26	0.406
413.72	0.406
414.18	0.403
414.64	0.402
415.10	0.402
415.56	0.402
416.02	0.401
416.48	0.400
416.95	0.394
417.41	0.393
417.87	0.394
418.33	0.399
418.79	0.394
419.25	0.393
419.71	0.391
420.17	0.391
420.63	0.388
421.09	0.383
421.55	0.388
422.01	0.386
422.47	0.386
422.93	0.386
423.39	0.385
423.85	0.386
424.31	0.379
424.77	0.379
425.23	0.380
425.69	0.382
426.15	0.379
426.61	0.379
427.07	0.373
427.53	0.376
427.99	0.373
428.45	0.375
428.91	0.372
429.37	0.372
429.83	0.370
430.29	0.371
430.75	0.374
431.21	0.374
431.67	0.370
432.13	0.368
432.59	0.363
433.05	0.363
433.51	0.363
433.97	0.363
434.43	0.363
434.89	0.363
435.35	0.361
435.81	0.363
436.27	0.359
436.73	0.359
437.19	0.356
437.65	0.355
438.11	0.359
438.57	0.361
439.03	0.355
439.48	0.358
439.94	0.355
440.40	0.353
440.86	0.355
441.32	0.350
441.78	0.353
442.24	0.350
442.70	0.347
443.16	0.345
443.62	0.344
444.08	0.346
444.54	0.346
444.99	0.345
445.45	0.341
445.91	0.342
446.37	0.344
446.83	0.341
447.29	0.338
447.75	0.340
448.21	0.340
448.67	0.337
449.12	0.336
449.58	0.338
450.04	0.334
450.50	0.335
450.96	0.338
451.42	0.334
451.88	0.334
452.34	0.334
452.79	0.332
453.25	0.333
453.71	0.331
454.17	0.328
454.63	0.329
455.09	0.332
455.55	0.327
456.00	0.326
456.46	0.325
456.92	0.324
457.38	0.326
457.84	0.319
458.30	0.317
458.75	0.325
459.21	0.319
459.67	0.320
460.13	0.323
460.59	0.317
461.04	0.319
461.50	0.319
461.96	0.315
462.42	0.316
462.88	0.313
463.33	0.313
463.79	0.314
464.25	0.316
464.71	0.314
465.17	0.313
465.62	0.313
466.08	0.311
466.54	0.312
467.00	0.313
467.46	0.312
467.91	0.308
468.37	0.308
468.83	0.309
469.29	0.306
469.74	0.306
470.20	0.306
470.66	0.305
471.12	0.301
471.57	0.304
472.03	0.301
472.49	0.303
472.95	0.303
473.40	0.302
473.86	0.301
474.32	0.299
474.78	0.300
475.23	0.298
475.69	0.299
476.15	0.297
476.60	0.301
477.06	0.295
477.52	0.298
477.98	0.293
478.43	0.293
478.89	0.293
479.35	0.292
479.80	0.294
480.26	0.291
480.72	0.290
481.18	0.289
481.63	0.290
482.09	0.292
482.55	0.291
483.00	0.289
483.46	0.285
483.92	0.288
484.37	0.288
484.83	0.287
485.29	0.286
485.74	0.284
486.20	0.285
486.66	0.284
487.11	0.283
487.57	0.283
488.03	0.284
488.48	0.283
488.94	0.280
489.40	0.280
489.85	0.282
490.31	0.280
490.77	0.279
491.22	0.280
491.68	0.277
492.13	0.278
492.59	0.278
493.05	0.275
493.50	0.278
493.96	0.276
494.42	0.276
494.87	0.272
495.33	0.271
495.78	0.273
496.24	0.272
496.70	0.271
497.15	0.271
497.61	0.273
498.06	0.272
498.52	0.271
498.98	0.269
499.43	0.271
499.89	0.271
500.34	0.268
500.80	0.267
501.25	0.268
501.71	0.266
502.17	0.266
502.62	0.269
503.08	0.267
503.53	0.264
503.99	0.264
504.44	0.265
504.90	0.264
505.36	0.260
505.81	0.261
506.27	0.264
506.72	0.263
507.18	0.262
507.63	0.260
508.09	0.263
508.54	0.259
509.00	0.259
509.45	0.258
509.91	0.259
510.36	0.260
510.82	0.257
511.27	0.257
511.73	0.257
512.19	0.253
512.64	0.254
513.10	0.255
513.55	0.254
514.01	0.253
514.46	0.253
514.92	0.250
515.37	0.253
515.83	0.253
516.28	0.252
516.73	0.251
517.19	0.250
517.64	0.249
518.10	0.252
518.55	0.247
519.01	0.248
519.46	0.249
519.92	0.248
520.37	0.246
520.83	0.247
521.28	0.247
521.74	0.248
522.19	0.247
522.65	0.243
523.10	0.246
523.55	0.243
524.01	0.247
524.46	0.242
524.92	0.240
525.37	0.243
525.83	0.242
526.28	0.243
526.73	0.241
527.19	0.243
527.64	0.242
528.10	0.239
528.55	0.239
529.01	0.241
529.46	0.241
529.91	0.236
530.37	0.237
530.82	0.237
531.28	0.236
531.73	0.237
532.18	0.235
532.64	0.238
533.09	0.235
533.54	0.236
534.00	0.233
534.45	0.237
534.91	0.236
535.36	0.235
535.81	0.234
536.27	0.232
536.72	0.235
537.17	0.232
537.63	0.232
538.08	0.231
538.54	0.232
538.99	0.229
539.44	0.231
539.90	0.228
540.35	0.227
540.80	0.228
541.26	0.228
541.71	0.226
542.16	0.228
542.62	0.227
543.07	0.227
543.52	0.227
543.98	0.227
544.43	0.224
544.88	0.224
545.34	0.227
545.79	0.224
546.24	0.222
546.69	0.226
547.15	0.223
547.60	0.223
548.05	0.224
548.51	0.220
548.96	0.222
549.41	0.222
549.86	0.221
550.32	0.221
550.77	0.222
551.22	0.221
551.68	0.219
552.13	0.218
552.58	0.216
553.03	0.218
553.49	0.218
553.94	0.218
554.39	0.218
554.84	0.218
555.30	0.218
555.75	0.216
556.20	0.216
556.65	0.215
557.11	0.217
557.56	0.215
558.01	0.217
558.46	0.215
558.92	0.213
559.37	0.214
559.82	0.213
560.27	0.213
560.72	0.212
561.18	0.210
561.63	0.211
562.08	0.208
562.53	0.212
562.99	0.210
563.44	0.210
563.89	0.208
564.34	0.209
564.79	0.210
565.25	0.209
565.70	0.207
566.15	0.207
566.60	0.208
567.05	0.208
567.50	0.208
567.96	0.205
568.41	0.206
568.86	0.206
569.31	0.205
569.76	0.204
570.21	0.204
570.67	0.205
571.12	0.205
571.57	0.204
572.02	0.204
572.47	0.202
572.92	0.201
573.37	0.201
573.83	0.198
574.28	0.203
574.73	0.199
575.18	0.201
575.63	0.201
576.08	0.198
576.53	0.199
576.98	0.199
577.44	0.197
577.89	0.200
578.34	0.197
578.79	0.199
579.24	0.196
579.69	0.197
580.14	0.195
580.59	0.195
581.04	0.193
581.49	0.194
581.95	0.195
582.40	0.194
582.85	0.195
583.30	0.193
583.75	0.191
584.20	0.193
584.65	0.192
585.10	0.192
585.55	0.194
586.00	0.192
586.45	0.192
586.90	0.192
587.35	0.190
587.80	0.191
588.25	0.192
588.71	0.192
589.16	0.189
589.61	0.189
590.06	0.190
590.51	0.189
590.96	0.189
591.41	0.189
591.86	0.190
592.31	0.189
592.76	0.187
593.21	0.189
593.66	0.189
594.11	0.188
594.56	0.188
595.01	0.189
595.46	0.187
595.91	0.187
596.36	0.185
596.81	0.186
597.26	0.186
597.71	0.188
598.16	0.185
598.61	0.184
599.06	0.184
599.51	0.185
599.96	0.185
600.41	0.185
600.86	0.184
601.31	0.182
601.76	0.183
602.21	0.184
602.65	0.185
603.10	0.180
603.55	0.182
604.00	0.182
604.45	0.181
604.90	0.181
605.35	0.182
605.80	0.181
606.25	0.183
606.70	0.182
607.15	0.181
607.60	0.181
608.05	0.180
608.50	0.179
608.95	0.177
609.39	0.179
609.84	0.179
610.29	0.178
610.74	0.178
611.19	0.176
611.64	0.178
612.09	0.177
612.54	0.176
612.99	0.177
613.44	0.176
613.88	0.178
614.33	0.176
614.78	0.174
615.23	0.175
615.68	0.175
616.13	0.175
616.58	0.175
617.03	0.174
617.47	0.174
617.92	0.174
618.37	0.174
618.82	0.174
619.27	0.173
619.72	0.171
620.17	0.173
620.61	0.171
621.06	0.172
621.51	0.170
621.96	0.171
622.41	0.169
622.86	0.170
623.30	0.170
623.75	0.171
624.20	0.171
624.65	0.168
625.10	0.170
625.54	0.171
625.99	0.169
626.44	0.170
626.89	0.169
627.34	0.169
627.78	0.167
628.23	0.168
628.68	0.166
629.13	0.165
629.58	0.167
630.02	0.166
630.47	0.167
630.92	0.167
631.37	0.166
631.81	0.165
632.26	0.166
632.71	0.164
633.16	0.163
633.61	0.166
634.05	0.163
634.50	0.165
634.95	0.165
635.40	0.165
635.84	0.165
636.29	0.164
636.74	0.164
637.18	0.165
637.63	0.163
638.08	0.162
638.53	0.162
638.97	0.162
639.42	0.164
639.87	0.163
640.32	0.162
640.76	0.164
641.21	0.163
641.66	0.162
642.10	0.162
642.55	0.160
643.00	0.160
643.44	0.160
643.89	0.160
644.34	0.160
644.79	0.158
645.23	0.159
645.68	0.162
646.13	0.160
646.57	0.158
647.02	0.160
647.47	0.160
647.91	0.157
648.36	0.158
648.81	0.159
649.25	0.157
649.70	0.155
650.15	0.157
650.59	0.158
651.04	0.157
651.48	0.161
651.93	0.157
652.38	0.156
652.82	0.156
653.27	0.154
653.72	0.157
654.16	0.155
654.61	0.158
655.06	0.155
655.50	0.152
655.95	0.152
656.39	0.149
656.84	0.151
657.29	0.156
657.73	0.154
658.18	0.154
658.62	0.155
659.07	0.153
659.52	0.154
659.96	0.154
660.41	0.154
660.85	0.153
661.30	0.152
661.74	0.154
662.19	0.153
662.64	0.152
663.08	0.152
663.53	0.152
663.97	0.152
664.42	0.150
664.86	0.151
665.31	0.151
665.75	0.150
666.20	0.153
666.65	0.151
667.09	0.152
667.54	0.151
667.98	0.149
668.43	0.149
668.87	0.150
669.32	0.150
669.76	0.150
670.21	0.150
670.65	0.148
671.10	0.150
671.54	0.149
671.99	0.148
672.43	0.148
672.88	0.147
673.32	0.149
673.77	0.146
674.21	0.147
674.66	0.147
675.10	0.146
675.55	0.146
675.99	0.147
676.44	0.145
676.88	0.147
677.33	0.147
677.77	0.146
678.22	0.145
678.66	0.143
679.11	0.146
679.55	0.147
679.99	0.143
680.44	0.147
680.88	0.145
681.33	0.144
681.77	0.143
682.22	0.143
682.66	0.146
683.11	0.146
683.55	0.143
683.99	0.146
684.44	0.142
684.88	0.143
685.33	0.143
685.77	0.143
686.21	0.144
686.66	0.144
687.10	0.142
687.55	0.143
687.99	0.147
688.44	0.144
688.88	0.143
689.32	0.144
689.77	0.141
690.21	0.141
690.65	0.142
691.10	0.142
691.54	0.141
691.99	0.143
692.43	0.141
692.87	0.141
693.32	0.143
693.76	0.141
694.20	0.141
694.65	0.141
695.09	0.141
695.53	0.140
695.98	0.140
696.42	0.143
696.86	0.139
697.31	0.137
697.75	0.139
698.19	0.138
698.64	0.138
699.08	0.137
699.52	0.138
699.97	0.140
700.41	0.139
700.85	0.140
701.30	0.138
701.74	0.138
702.18	0.137
702.63	0.139
703.07	0.138
703.51	0.138
703.96	0.137
704.40	0.138
704.84	0.138
705.28	0.138
705.73	0.136
706.17	0.137
706.61	0.136
707.06	0.137
707.50	0.136
707.94	0.134
708.38	0.135
708.83	0.138
709.27	0.138
709.71	0.137
710.15	0.136
710.60	0.135
711.04	0.135
711.48	0.138
711.92	0.135
712.37	0.135
712.81	0.135
713.25	0.134
713.69	0.137
714.13	0.136
714.58	0.134
715.02	0.135
715.46	0.133
715.90	0.133
716.35	0.133
716.79	0.136
717.23	0.136
717.67	0.135
718.11	0.137
718.56	0.135
719.00	0.135
719.44	0.135
719.88	0.135
720.32	0.134
720.76	0.137
721.21	0.135
721.65	0.135
722.09	0.134
722.53	0.135
722.97	0.136
723.41	0.135
723.86	0.136
724.30	0.136
724.74	0.134
725.18	0.136
725.62	0.134
726.06	0.136
726.50	0.133
726.95	0.134
727.39	0.135
727.83	0.133
728.27	0.136
728.71	0.133
729.15	0.135
729.59	0.134
730.03	0.134
730.48	0.134
730.92	0.134
731.36	0.136
731.80	0.134
732.24	0.136
732.68	0.132
733.12	0.133
733.56	0.134
734.00	0.134
734.44	0.138
734.89	0.136
735.33	0.136
735.77	0.139
736.21	0.136
736.65	0.135
737.09	0.135
737.53	0.136
737.97	0.136
738.41	0.134
738.85	0.140
739.29	0.137
739.73	0.135
740.17	0.135
740.61	0.134
741.05	0.137
741.49	0.135
741.93	0.133
742.37	0.133
742.81	0.136
743.26	0.135
743.70	0.134
744.14	0.134
744.58	0.131
745.02	0.133
745.46	0.133
745.90	0.133
746.34	0.133
746.78	0.133
747.22	0.135
747.66	0.135
748.10	0.135
748.54	0.133
748.98	0.133
749.42	0.132
749.86	0.135
750.29	0.131
750.73	0.130
751.17	0.131
751.61	0.129
752.05	0.133
752.49	0.131
752.93	0.129
753.37	0.129
753.81	0.130
754.25	0.130
754.69	0.129
755.13	0.128
755.57	0.129
756.01	0.132
756.45	0.134
756.89	0.130
757.33	0.130
757.77	0.129
758.21	0.129
758.64	0.129
759.08	0.125
759.52	0.129
759.96	0.131
760.40	0.130
760.84	0.128
761.28	0.128
761.72	0.131
762.16	0.129
762.60	0.127
763.03	0.127
763.47	0.129
763.91	0.128
764.35	0.128
764.79	0.125
765.23	0.126
765.67	0.126
766.11	0.125
766.54	0.121
766.98	0.129
767.42	0.127
767.86	0.126
768.30	0.129
768.74	0.128
769.17	0.127
769.61	0.130
770.05	0.127
770.49	0.125
770.93	0.127
771.37	0.121
771.80	0.126
772.24	0.126
772.68	0.125
773.12	0.126
773.56	0.124
774.00	0.123
774.43	0.126
774.87	0.123
775.31	0.125
775.75	0.124
776.19	0.123
776.62	0.122
777.06	0.127
777.50	0.124
777.94	0.125
778.37	0.124
778.81	0.127
779.25	0.125
779.69	0.125
780.13	0.125
780.56	0.125
781.00	0.123
781.44	0.126
781.88	0.126
782.31	0.124
782.75	0.121
783.19	0.126
783.63	0.122
784.06	0.121
784.50	0.124
784.94	0.124
785.37	0.123
785.81	0.124
786.25	0.123
786.69	0.119
787.12	0.120
787.56	0.119
788.00	0.122
788.43	0.124
788.87	0.122
789.31	0.122
789.75	0.123
790.18	0.122
790.62	0.119
791.06	0.120
791.49	0.121
791.93	0.123
792.37	0.123
792.80	0.119
793.24	0.119
793.68	0.123
794.11	0.122
794.55	0.121
794.99	0.123
795.42	0.120
795.86	0.122
796.30	0.121
796.73	0.120
797.17	0.122
797.61	0.118
798.04	0.118
798.48	0.122
798.91	0.122
799.35	0.119
799.79	0.124
800.22	0.120
800.66	0.119
801.10	0.121
801.53	0.118
801.97	0.122
802.40	0.123
802.84	0.118
803.28	0.115
803.71	0.121
804.15	0.115
804.58	0.116
805.02	0.122
805.46	0.116
805.89	0.119
806.33	0.119
806.76	0.118
807.20	0.123
807.63	0.118
808.07	0.121
808.51	0.119
808.94	0.118
809.38	0.117
809.81	0.119
810.25	0.121
810.68	0.120
811.12	0.118
811.55	0.121
811.99	0.118
812.42	0.116
812.86	0.114
813.29	0.115
813.73	0.117
814.17	0.115
814.60	0.117
815.04	0.116
815.47	0.118
815.91	0.115
816.34	0.119
816.78	0.118
817.21	0.119
817.65	0.118
818.08	0.117
818.52	0.121
818.95	0.123
819.39	0.117
819.82	0.122
820.25	0.114
820.69	0.114
821.12	0.119
821.56	0.117
821.99	0.116
822.43	0.115
822.86	0.120
823.30	0.118
823.73	0.115
824.17	0.114
824.60	0.115
825.04	0.120
825.47	0.115
825.90	0.116
826.34	0.119
826.77	0.119
827.21	0.116
827.64	0.117
828.08	0.120
828.51	0.119
828.94	0.117
829.38	0.115
829.81	0.125
830.25	0.119
830.68	0.117
831.11	0.117
831.55	0.119
831.98	0.120
832.42	0.119
832.85	0.120
833.28	0.120
833.72	0.121
834.15	0.121
834.58	0.124
835.02	0.123
835.45	0.121
835.88	0.123
836.32	0.124
836.75	0.121
837.19	0.122
837.62	0.121
838.05	0.121
838.49	0.121
838.92	0.120
839.35	0.124
839.79	0.118
840.22	0.122
840.65	0.117
841.09	0.124
841.52	0.123
841.95	0.120
842.39	0.125
842.82	0.119
843.25	0.120
843.68	0.120
844.12	0.122
844.55	0.123
844.98	0.121
845.42	0.124
845.85	0.117
846.28	0.124
846.71	0.120
847.15	0.123
847.58	0.123
848.01	0.130
848.45	0.123
848.88	0.130
849.31	0.122
849.74	0.122
850.18	0.125
850.61	0.122
851.04	0.123
851.47	0.124
851.91	0.124
852.34	0.124
852.77	0.125
853.20	0.122
853.64	0.126
854.07	0.123
854.50	0.122
854.93	0.127
855.36	0.125
855.80	0.121
856.23	0.122
856.66	0.124
857.09	0.120
857.52	0.121
857.96	0.116
858.39	0.124
858.82	0.123
859.25	0.125
859.68	0.124
860.12	0.122
860.55	0.115
860.98	0.123
861.41	0.119
861.84	0.123
862.27	0.121
862.71	0.121
863.14	0.118
863.57	0.123
864.00	0.119
864.43	0.129
864.86	0.124
865.30	0.125
865.73	0.126
866.16	0.121
866.59	0.122
867.02	0.123
867.45	0.125
867.88	0.126
868.31	0.125
868.75	0.123
869.18	0.130
869.61	0.124
870.04	0.120
870.47	0.126
870.90	0.124
871.33	0.124
871.76	0.127
872.19	0.124
872.62	0.124
873.06	0.126
873.49	0.126
873.92	0.126
874.35	0.124
874.78	0.126
875.21	0.122
875.64	0.121
876.07	0.122
876.50	0.124
876.93	0.125
877.36	0.128
877.79	0.124
878.22	0.124
878.65	0.128
879.08	0.127
879.51	0.130
879.94	0.126
880.37	0.129
880.80	0.128
881.23	0.127
881.67	0.127
882.10	0.124
882.53	0.122
882.96	0.126
883.39	0.131
883.82	0.121
884.25	0.126
884.68	0.129
885.11	0.128
885.54	0.129
885.97	0.129
886.39	0.121
886.82	0.127
887.25	0.127
887.68	0.124
888.11	0.127
888.54	0.127
888.97	0.125
889.40	0.132
889.83	0.124
890.26	0.122
890.69	0.126
891.12	0.125
891.55	0.123
891.98	0.127
892.41	0.123
892.84	0.125
893.27	0.126
893.70	0.125
894.13	0.133
894.56	0.127
894.98	0.133
895.41	0.130
895.84	0.131
896.27	0.130
896.70	0.129
897.13	0.131
897.56	0.130
897.99	0.127
898.42	0.124
898.85	0.133
899.27	0.131
899.70	0.126
900.13	0.128
900.56	0.132
900.99	0.131
901.42	0.132
901.85	0.128
902.28	0.129
902.70	0.130
903.13	0.132
903.56	0.129
903.99	0.127
904.42	0.130
904.85	0.131
905.27	0.126
905.70	0.134
906.13	0.130
906.56	0.133
906.99	0.134
907.42	0.127
907.84	0.127
908.27	0.132
908.70	0.134
909.13	0.127
909.56	0.126
909.98	0.131
910.41	0.130
910.84	0.130
911.27	0.133
911.70	0.127
912.12	0.129
912.55	0.128
912.98	0.130
913.41	0.127
913.84	0.128
914.26	0.131
914.69	0.130
915.12	0.130
915.55	0.127
915.97	0.131
916.40	0.131
916.83	0.127
917.26	0.132
917.68	0.128
918.11	0.130
918.54	0.130
918.97	0.130
919.39	0.133
919.82	0.131
920.25	0.129
920.67	0.128
921.10	0.134
921.53	0.134
921.96	0.137
922.38	0.130
922.81	0.130
923.24	0.133
923.66	0.133
924.09	0.135
924.52	0.137
924.94	0.136
925.37	0.135
925.80	0.140
926.22	0.136
926.65	0.134
927.08	0.136
927.50	0.137
927.93	0.138
928.36	0.136
928.78	0.138
929.21	0.137
929.64	0.137
930.06	0.149
930.49	0.143
930.92	0.145
931.34	0.146
931.77	0.145
932.20	0.147
932.62	0.143
933.05	0.146
933.47	0.149
933.90	0.147
934.33	0.148
934.75	0.150
935.18	0.151
935.61	0.150
936.03	0.154
936.46	0.154
936.88	0.154
937.31	0.158
937.73	0.159
938.16	0.152
938.59	0.163
939.01	0.163
939.44	0.168
939.86	0.169
940.29	0.169
940.71	0.171
941.14	0.172
941.57	0.178
941.99	0.170
942.42	0.175
942.84	0.182
943.27	0.182
943.69	0.188
944.12	0.180
944.54	0.191
944.97	0.188
945.39	0.185
945.82	0.187
946.24	0.202
946.67	0.193
947.09	0.201
947.52	0.189
947.94	0.197
948.37	0.203
948.79	0.208
949.22	0.206
949.64	0.202
950.07	0.218
950.49	0.213
950.92	0.215
951.34	0.212
951.77	0.220
952.19	0.220
952.62	0.232
953.04	0.231
953.47	0.231
953.89	0.229
954.32	0.238
954.74	0.237
955.17	0.241
955.59	0.247
956.01	0.245
956.44	0.250
956.86	0.251
957.29	0.250
957.71	0.268
958.14	0.261
958.56	0.261
958.98	0.263
959.41	0.261
959.83	0.261
960.26	0.265
960.68	0.271
961.10	0.272
961.53	0.270
961.95	0.277
962.38	0.280
962.80	0.276
963.22	0.277
963.65	0.274
964.07	0.273
964.50	0.282
964.92	0.280
965.34	0.278
965.77	0.274
966.19	0.281
966.61	0.281
967.04	0.283
967.46	0.281
967.88	0.289
968.31	0.286
968.73	0.285
969.15	0.283
969.58	0.282
970.00	0.282
970.42	0.287
970.85	0.280
971.27	0.281
971.69	0.285
972.12	0.291
972.54	0.292
972.96	0.292
973.39	0.290
973.81	0.290
974.23	0.285
974.65	0.282
975.08	0.292
975.50	0.292
975.92	0.290
976.35	0.286
976.77	0.286
977.19	0.291
977.61	0.295
978.04	0.287
978.46	0.287
978.88	0.292
979.30	0.290
979.73	0.288
980.15	0.292
980.57	0.289
980.99	0.288
981.42	0.289
981.84	0.290
982.26	0.287
982.68	0.291
983.11	0.290
983.53	0.287
983.95	0.286
984.37	0.287
984.79	0.286
985.22	0.289
985.64	0.287
986.06	0.285
986.48	0.281
986.90	0.288
987.33	0.278
987.75	0.284
988.17	0.288
988.59	0.283
989.01	0.273
989.43	0.275
989.86	0.278
990.28	0.282
990.70	0.282
991.12	0.276
991.54	0.280
991.96	0.274
992.39	0.276
992.81	0.273
993.23	0.272
993.65	0.275
994.07	0.275
994.49	0.270
994.91	0.270
995.34	0.269
995.76	0.269
996.18	0.274
996.60	0.263
997.02	0.266
997.44	0.272
997.86	0.269
998.28	0.262
998.70	0.265
999.12	0.261
999.55	0.259
999.97	0.269
1000.39	0.262
1000.81	0.260
1001.23	0.263
1001.65	0.261
1002.07	0.260
1002.49	0.259
1002.91	0.254
1003.33	0.258
1003.75	0.252
1004.17	0.253
1004.59	0.246
1005.01	0.256
1005.43	0.256
1005.85	0.251
1006.28	0.248
1006.70	0.250
1007.12	0.255
1007.54	0.250
1007.96	0.253
1008.38	0.251
1008.80	0.248
1009.22	0.248
1009.64	0.241
1010.06	0.242
1010.48	0.248
1010.90	0.244
1011.32	0.247
1011.74	0.242
1012.16	0.241
1012.58	0.237
1013.00	0.228
1013.42	0.230
1013.84	0.235
1014.26	0.229
1014.67	0.230
1015.09	0.234
1015.51	0.234
1015.93	0.238
1016.35	0.227
1016.77	0.236
1017.19	0.232
1017.61	0.222
1018.03	0.231
1018.45	0.233
1018.87	0.235
1019.29	0.224
1019.71	0.221
1020.13	0.220
1020.55	0.228
1020.97	0.210
1021.38	0.220
1021.80	0.218
1022.22	0.221
1022.64	0.213
1023.06	0.217
1023.48	0.218
1023.90	0.200
1024.32	0.207
1024.74	0.215
1025.15	0.214
1025.57	0.222
1025.99	0.211
1026.41	0.219
1026.83	0.211
1027.25	0.204
1027.67	0.205
1028.08	0.196
1028.50	0.211
1028.92	0.206
1029.34	0.190
1029.76	0.201
1030.18	0.206
1030.60	0.204
1031.01	0.209
1031.43	0.194
1031.85	0.194
1032.27	0.209
1032.69	0.181
1033.10	0.207
1033.52	0.196
1033.94	0.182
1034.36	0.194
1034.78	0.189
1035.19	0.194
1035.61	0.197
1036.03	0.198
1036.45	0.182
1036.87	0.210
1037.28	0.194
1037.70	0.193
1038.12	0.189
1038.54	0.188
1038.95	0.178
1039.37	0.180
1039.79	0.172
1040.21	0.197
1040.62	0.189
1041.04	0.176
1041.46	0.189
1041.88	0.182
1042.29	0.193
1042.71	0.187
1043.13	0.188
1043.55	0.193
1043.96	0.204
1044.38	0.189
1044.80	0.172
1045.21	0.174
1045.63	0.172
1046.05	0.202
1046.47	0.179
1046.88	0.164
1047.30	0.199
1047.72	0.169
1048.13	0.173
1048.55	0.179
1048.97	0.175
1049.38	0.186
1049.80	0.173
1050.22	0.185
1050.63	0.168
1051.05	0.191
1051.47	0.149
1051.88	0.182
1052.30	0.175
1052.72	0.160
1053.13	0.177
1053.55	0.166
1053.97	0.153
1054.38	0.182
1054.80	0.167
1055.21	0.188
1055.63	0.166
1056.05	0.168
1056.46	0.187
1056.88	0.187
1057.29	0.167
1057.71	0.216
1058.13	0.185
1058.54	0.208
1058.96	0.186
1059.37	0.203
1059.79	0.181
1060.21	0.193
1060.62	0.200
1061.04	0.188
1061.45	0.171
1061.87	0.173
1062.28	0.197
1062.70	0.235
1063.12	0.198
1063.53	0.180
1063.95	0.185
1064.36	0.202
1064.78	0.245
1065.19	0.268
1065.61	0.243
1066.02	0.218
1066.44	0.218
1066.85	0.177
1067.27	0.216
1067.68	0.183
1068.10	0.200
1068.51	0.194
1068.93	0.276
1069.35	0.385
1069.76	0.227
1070.17	0.387
1070.59	0.301
1071.00	0.346
1071.42	0.272
1071.83	0.338
1072.25	0.377
1072.66	0.355
1073.08	0.500
1073.49	0.348
1073.91	0.287
1074.32	0.302
1074.74	0.324
1075.15	0.260
1075.57	0.226
1075.98	0.513
1076.40	0.257
1076.81	0.350
1077.22	0.338
1077.64	0.402
1078.05	0.463
1078.47	0.553
1078.88	0.384
1079.30	0.626
1079.71	0.650
1080.12	0.650
1080.54	0.973
1080.95	0.473
1081.37	0.702
1081.78	0.380
1082.19	0.611
1082.61	1.129
1083.02	-0.000
1083.44	0.660
1083.85	0.526
1084.26	-0.000
1084.68	1.148
1085.09	0.902
1085.50	0.493
1085.92	-0.000
1086.33	-0.000
1086.74	0.801
1087.16	-0.000
1087.57	-0.000
1087.98	0.543
1088.40	-0.000
1088.81	-0.000
1089.22	-0.000
1089.64	-0.000
1090.05	0.640
1090.46	-0.000
1090.88	-0.000
1091.29	-0.000
1091.70	-0.000
1092.12	-0.000
1092.53	-0.000
1092.94	-0.000
1093.36	-0.000
1093.77	-0.000
1094.18	-0.000
1094.59	-0.000
1095.01	-0.000
1095.42	-0.000
1095.83	-0.000
1096.25	-0.000
1096.66	-0.000
1097.07	-0.000
1097.48	-0.000
1097.90	-0.000
1098.31	0.749
1098.72	-0.000
1099.13	-0.000
>>>>>End Processed Spectral Data<<<<<
