SpectraSuite Data File
++++++++++++++++++++++++++++++++++++
Date: Mon Jul 10 13:43:47 CEST 2017
User: IPCE
Dark Spectrum Present: Yes
Reference Spectrum Present: Yes
Number of Sampled Component Spectra: 1
Spectrometers: HR+C0708
Integration Time (usec): 1000 (HR+C0708)
Spectra Averaged: 10 (HR+C0708)
Boxcar Smoothing: 0 (HR+C0708)
Correct for Electrical Dark: No (HR+C0708)
Strobe/Lamp Enabled: No (HR+C0708)
Correct for Detector Non-linearity: No (HR+C0708)
Correct for Stray Light: No (HR+C0708)
Number of Pixels in Processed Spectrum: 2048
>>>>>Begin Processed Spectral Data<<<<<
188.76	0.178
189.23	1.886
189.70	-0.000
190.17	0.754
190.64	0.430
191.12	-0.048
191.59	-0.000
192.06	0.679
192.53	-0.000
193.01	1.803
193.48	0.357
193.95	-0.000
194.42	0.301
194.90	0.221
195.37	1.067
195.84	1.125
196.31	-0.000
196.78	-0.000
197.26	0.065
197.73	0.619
198.20	0.256
198.67	0.189
199.14	0.285
199.62	0.484
200.09	0.927
200.56	0.648
201.03	0.547
201.50	0.532
201.97	0.621
202.45	0.402
202.92	0.572
203.39	0.667
203.86	0.585
204.33	0.854
204.80	0.711
205.28	0.732
205.75	2.246
206.22	0.631
206.69	0.653
207.16	0.428
207.63	0.332
208.11	0.363
208.58	0.436
209.05	0.328
209.52	0.481
209.99	0.551
210.46	0.362
210.93	0.579
211.41	0.624
211.88	0.593
212.35	0.466
212.82	0.586
213.29	0.511
213.76	0.641
214.23	0.545
214.70	0.904
215.18	0.892
215.65	0.457
216.12	0.413
216.59	0.635
217.06	0.496
217.53	0.500
218.00	0.692
218.47	0.482
218.94	0.570
219.41	0.597
219.89	0.724
220.36	0.389
220.83	0.438
221.30	0.609
221.77	0.571
222.24	0.619
222.71	0.770
223.18	0.613
223.65	0.851
224.12	0.809
224.59	0.747
225.06	0.905
225.54	0.791
226.01	1.066
226.48	0.977
226.95	2.558
227.42	1.129
227.89	0.899
228.36	1.637
228.83	1.119
229.30	1.419
229.77	1.189
230.24	1.513
230.71	1.344
231.18	1.406
231.65	1.542
232.12	1.636
232.59	1.475
233.06	1.566
233.53	1.558
234.00	1.592
234.47	1.666
234.94	1.675
235.41	1.713
235.88	1.967
236.35	1.754
236.82	1.895
237.29	2.820
237.76	2.107
238.23	2.230
238.70	2.713
239.17	2.178
239.64	2.277
240.11	2.203
240.58	2.159
241.05	2.452
241.52	2.089
241.99	2.257
242.46	2.358
242.93	2.681
243.40	2.565
243.87	2.461
244.34	2.690
244.81	2.381
245.28	2.513
245.75	2.412
246.22	2.432
246.69	2.300
247.16	2.460
247.63	2.652
248.10	2.635
248.57	2.566
249.04	2.492
249.51	2.616
249.98	2.371
250.45	2.490
250.92	2.624
251.39	2.957
251.85	2.455
252.32	2.517
252.79	2.531
253.26	2.341
253.73	2.449
254.20	2.390
254.67	2.384
255.14	2.596
255.61	2.592
256.08	2.615
256.55	2.657
257.02	2.791
257.49	2.674
257.95	2.903
258.42	2.618
258.89	2.539
259.36	2.715
259.83	2.624
260.30	2.708
260.77	2.911
261.24	2.703
261.71	2.956
262.17	2.610
262.64	2.607
263.11	2.892
263.58	2.706
264.05	2.766
264.52	2.725
264.99	2.568
265.46	2.642
265.92	2.846
266.39	2.786
266.86	2.799
267.33	2.710
267.80	2.676
268.27	2.701
268.74	2.796
269.20	2.742
269.67	2.951
270.14	2.827
270.61	2.704
271.08	2.809
271.55	2.751
272.01	2.736
272.48	2.583
272.95	2.577
273.42	2.806
273.89	2.561
274.36	2.995
274.82	2.580
275.29	2.746
275.76	2.615
276.23	2.617
276.70	2.518
277.16	2.762
277.63	2.581
278.10	2.667
278.57	2.856
279.04	2.543
279.50	2.529
279.97	2.563
280.44	2.465
280.91	2.802
281.38	2.819
281.84	2.600
282.31	2.840
282.78	2.763
283.25	2.570
283.72	2.745
284.18	2.688
284.65	2.755
285.12	2.569
285.59	2.666
286.05	2.632
286.52	2.756
286.99	2.623
287.46	2.683
287.92	2.624
288.39	2.682
288.86	2.664
289.33	2.533
289.79	2.602
290.26	2.609
290.73	2.528
291.20	2.546
291.66	2.559
292.13	2.546
292.60	2.607
293.07	2.692
293.53	2.450
294.00	2.493
294.47	2.546
294.93	2.530
295.40	2.581
295.87	2.574
296.34	2.585
296.80	2.685
297.27	2.657
297.74	2.577
298.20	2.627
298.67	2.454
299.14	2.695
299.60	2.425
300.07	2.488
300.54	2.584
301.01	2.540
301.47	2.571
301.94	2.523
302.41	2.480
302.87	2.477
303.34	2.544
303.81	2.232
304.27	2.365
304.74	2.396
305.21	2.371
305.67	2.408
306.14	2.374
306.61	2.379
307.07	2.521
307.54	2.431
308.01	2.404
308.47	2.386
308.94	2.321
309.40	2.408
309.87	2.341
310.34	2.286
310.80	2.435
311.27	2.304
311.74	2.392
312.20	2.325
312.67	2.404
313.13	2.432
313.60	2.394
314.07	2.357
314.53	2.374
315.00	2.423
315.47	2.349
315.93	2.458
316.40	2.391
316.86	2.357
317.33	2.438
317.80	2.423
318.26	2.430
318.73	2.431
319.19	2.378
319.66	2.261
320.13	2.392
320.59	2.243
321.06	2.293
321.52	2.296
321.99	2.277
322.45	2.268
322.92	2.269
323.39	2.175
323.85	2.228
324.32	2.193
324.78	2.175
325.25	2.201
325.71	2.134
326.18	2.172
326.64	2.146
327.11	2.129
327.58	2.157
328.04	2.015
328.51	1.957
328.97	2.004
329.44	1.965
329.90	1.933
330.37	1.990
330.83	1.861
331.30	1.901
331.76	1.836
332.23	1.772
332.69	1.769
333.16	1.684
333.62	1.669
334.09	1.649
334.56	1.572
335.02	1.519
335.49	1.486
335.95	1.421
336.42	1.378
336.88	1.312
337.35	1.268
337.81	1.225
338.28	1.179
338.74	1.133
339.20	1.101
339.67	1.043
340.13	0.990
340.60	0.951
341.06	0.899
341.53	0.857
341.99	0.818
342.46	0.776
342.92	0.734
343.39	0.704
343.85	0.667
344.32	0.636
344.78	0.614
345.25	0.587
345.71	0.557
346.17	0.534
346.64	0.498
347.10	0.468
347.57	0.437
348.03	0.415
348.50	0.394
348.96	0.369
349.43	0.353
349.89	0.332
350.35	0.318
350.82	0.301
351.28	0.288
351.75	0.274
352.21	0.264
352.67	0.248
353.14	0.242
353.60	0.225
354.07	0.218
354.53	0.211
355.00	0.201
355.46	0.198
355.92	0.192
356.39	0.186
356.85	0.180
357.31	0.179
357.78	0.170
358.24	0.170
358.71	0.162
359.17	0.158
359.63	0.156
360.10	0.153
360.56	0.151
361.03	0.148
361.49	0.146
361.95	0.148
362.42	0.148
362.88	0.142
363.34	0.143
363.81	0.143
364.27	0.141
364.73	0.138
365.20	0.136
365.66	0.137
366.12	0.134
366.59	0.134
367.05	0.132
367.51	0.133
367.98	0.132
368.44	0.130
368.90	0.130
369.37	0.129
369.83	0.125
370.29	0.125
370.76	0.125
371.22	0.127
371.68	0.126
372.15	0.126
372.61	0.122
373.07	0.123
373.54	0.120
374.00	0.121
374.46	0.122
374.92	0.120
375.39	0.120
375.85	0.119
376.31	0.119
376.78	0.118
377.24	0.118
377.70	0.116
378.16	0.121
378.63	0.118
379.09	0.117
379.55	0.118
380.01	0.114
380.48	0.114
380.94	0.114
381.40	0.113
381.87	0.114
382.33	0.117
382.79	0.116
383.25	0.110
383.72	0.115
384.18	0.113
384.64	0.112
385.10	0.113
385.56	0.111
386.03	0.109
386.49	0.110
386.95	0.108
387.41	0.110
387.88	0.110
388.34	0.110
388.80	0.109
389.26	0.107
389.72	0.109
390.19	0.107
390.65	0.107
391.11	0.107
391.57	0.105
392.04	0.105
392.50	0.109
392.96	0.107
393.42	0.106
393.88	0.104
394.34	0.106
394.81	0.105
395.27	0.107
395.73	0.102
396.19	0.104
396.65	0.107
397.12	0.102
397.58	0.102
398.04	0.100
398.50	0.103
398.96	0.103
399.42	0.101
399.89	0.103
400.35	0.100
400.81	0.101
401.27	0.098
401.73	0.100
402.19	0.098
402.65	0.099
403.12	0.094
403.58	0.095
404.04	0.094
404.50	0.096
404.96	0.095
405.42	0.093
405.88	0.094
406.34	0.094
406.81	0.094
407.27	0.092
407.73	0.094
408.19	0.091
408.65	0.090
409.11	0.091
409.57	0.091
410.03	0.088
410.49	0.088
410.96	0.089
411.42	0.085
411.88	0.087
412.34	0.088
412.80	0.087
413.26	0.087
413.72	0.088
414.18	0.085
414.64	0.084
415.10	0.086
415.56	0.086
416.02	0.087
416.48	0.088
416.95	0.084
417.41	0.083
417.87	0.086
418.33	0.083
418.79	0.081
419.25	0.082
419.71	0.083
420.17	0.084
420.63	0.084
421.09	0.083
421.55	0.084
422.01	0.083
422.47	0.082
422.93	0.081
423.39	0.082
423.85	0.081
424.31	0.083
424.77	0.082
425.23	0.085
425.69	0.081
426.15	0.082
426.61	0.078
427.07	0.082
427.53	0.080
427.99	0.081
428.45	0.081
428.91	0.080
429.37	0.078
429.83	0.081
430.29	0.081
430.75	0.081
431.21	0.080
431.67	0.079
432.13	0.076
432.59	0.076
433.05	0.076
433.51	0.077
433.97	0.075
434.43	0.078
434.89	0.075
435.35	0.076
435.81	0.072
436.27	0.072
436.73	0.072
437.19	0.074
437.65	0.076
438.11	0.077
438.57	0.075
439.03	0.073
439.48	0.076
439.94	0.075
440.40	0.075
440.86	0.073
441.32	0.071
441.78	0.072
442.24	0.074
442.70	0.071
443.16	0.073
443.62	0.073
444.08	0.075
444.54	0.073
444.99	0.074
445.45	0.074
445.91	0.072
446.37	0.071
446.83	0.071
447.29	0.070
447.75	0.073
448.21	0.070
448.67	0.071
449.12	0.068
449.58	0.073
450.04	0.071
450.50	0.072
450.96	0.072
451.42	0.069
451.88	0.071
452.34	0.070
452.79	0.071
453.25	0.072
453.71	0.072
454.17	0.070
454.63	0.070
455.09	0.072
455.55	0.069
456.00	0.069
456.46	0.070
456.92	0.069
457.38	0.065
457.84	0.069
458.30	0.070
458.75	0.071
459.21	0.069
459.67	0.072
460.13	0.067
460.59	0.070
461.04	0.071
461.50	0.071
461.96	0.070
462.42	0.069
462.88	0.070
463.33	0.067
463.79	0.070
464.25	0.069
464.71	0.071
465.17	0.069
465.62	0.068
466.08	0.071
466.54	0.070
467.00	0.071
467.46	0.070
467.91	0.069
468.37	0.069
468.83	0.071
469.29	0.071
469.74	0.069
470.20	0.069
470.66	0.070
471.12	0.071
471.57	0.071
472.03	0.069
472.49	0.071
472.95	0.071
473.40	0.069
473.86	0.069
474.32	0.071
474.78	0.071
475.23	0.070
475.69	0.072
476.15	0.070
476.60	0.068
477.06	0.070
477.52	0.071
477.98	0.072
478.43	0.070
478.89	0.071
479.35	0.070
479.80	0.071
480.26	0.070
480.72	0.071
481.18	0.070
481.63	0.070
482.09	0.068
482.55	0.071
483.00	0.070
483.46	0.071
483.92	0.069
484.37	0.072
484.83	0.068
485.29	0.072
485.74	0.071
486.20	0.074
486.66	0.069
487.11	0.072
487.57	0.070
488.03	0.071
488.48	0.070
488.94	0.072
489.40	0.072
489.85	0.072
490.31	0.072
490.77	0.072
491.22	0.070
491.68	0.072
492.13	0.070
492.59	0.072
493.05	0.072
493.50	0.070
493.96	0.071
494.42	0.070
494.87	0.070
495.33	0.071
495.78	0.072
496.24	0.072
496.70	0.071
497.15	0.071
497.61	0.071
498.06	0.070
498.52	0.070
498.98	0.073
499.43	0.070
499.89	0.068
500.34	0.072
500.80	0.071
501.25	0.070
501.71	0.070
502.17	0.069
502.62	0.071
503.08	0.070
503.53	0.071
503.99	0.069
504.44	0.069
504.90	0.069
505.36	0.068
505.81	0.069
506.27	0.070
506.72	0.070
507.18	0.070
507.63	0.069
508.09	0.071
508.54	0.067
509.00	0.069
509.45	0.070
509.91	0.069
510.36	0.066
510.82	0.070
511.27	0.069
511.73	0.072
512.19	0.067
512.64	0.070
513.10	0.070
513.55	0.067
514.01	0.069
514.46	0.068
514.92	0.068
515.37	0.066
515.83	0.070
516.28	0.068
516.73	0.066
517.19	0.066
517.64	0.069
518.10	0.067
518.55	0.065
519.01	0.069
519.46	0.067
519.92	0.067
520.37	0.069
520.83	0.069
521.28	0.067
521.74	0.065
522.19	0.066
522.65	0.066
523.10	0.066
523.55	0.069
524.01	0.068
524.46	0.068
524.92	0.067
525.37	0.068
525.83	0.067
526.28	0.068
526.73	0.067
527.19	0.068
527.64	0.068
528.10	0.069
528.55	0.068
529.01	0.070
529.46	0.068
529.91	0.069
530.37	0.069
530.82	0.067
531.28	0.067
531.73	0.070
532.18	0.071
532.64	0.067
533.09	0.070
533.54	0.070
534.00	0.069
534.45	0.070
534.91	0.072
535.36	0.070
535.81	0.070
536.27	0.072
536.72	0.073
537.17	0.070
537.63	0.073
538.08	0.074
538.54	0.072
538.99	0.075
539.44	0.075
539.90	0.074
540.35	0.074
540.80	0.076
541.26	0.074
541.71	0.075
542.16	0.076
542.62	0.076
543.07	0.077
543.52	0.076
543.98	0.076
544.43	0.079
544.88	0.079
545.34	0.080
545.79	0.079
546.24	0.082
546.69	0.080
547.15	0.082
547.60	0.081
548.05	0.084
548.51	0.083
548.96	0.083
549.41	0.083
549.86	0.084
550.32	0.086
550.77	0.084
551.22	0.086
551.68	0.088
552.13	0.089
552.58	0.088
553.03	0.090
553.49	0.089
553.94	0.091
554.39	0.093
554.84	0.091
555.30	0.092
555.75	0.093
556.20	0.092
556.65	0.095
557.11	0.096
557.56	0.098
558.01	0.097
558.46	0.100
558.92	0.101
559.37	0.102
559.82	0.100
560.27	0.100
560.72	0.102
561.18	0.104
561.63	0.103
562.08	0.104
562.53	0.104
562.99	0.108
563.44	0.106
563.89	0.105
564.34	0.109
564.79	0.108
565.25	0.112
565.70	0.112
566.15	0.114
566.60	0.110
567.05	0.114
567.50	0.116
567.96	0.116
568.41	0.118
568.86	0.118
569.31	0.121
569.76	0.120
570.21	0.122
570.67	0.123
571.12	0.123
571.57	0.123
572.02	0.126
572.47	0.124
572.92	0.127
573.37	0.130
573.83	0.129
574.28	0.130
574.73	0.132
575.18	0.133
575.63	0.135
576.08	0.136
576.53	0.138
576.98	0.140
577.44	0.140
577.89	0.142
578.34	0.144
578.79	0.144
579.24	0.145
579.69	0.147
580.14	0.150
580.59	0.152
581.04	0.153
581.49	0.155
581.95	0.155
582.40	0.158
582.85	0.161
583.30	0.162
583.75	0.164
584.20	0.167
584.65	0.167
585.10	0.169
585.55	0.174
586.00	0.176
586.45	0.176
586.90	0.181
587.35	0.181
587.80	0.183
588.25	0.186
588.71	0.186
589.16	0.193
589.61	0.193
590.06	0.196
590.51	0.201
590.96	0.199
591.41	0.202
591.86	0.207
592.31	0.210
592.76	0.210
593.21	0.213
593.66	0.217
594.11	0.219
594.56	0.222
595.01	0.226
595.46	0.228
595.91	0.231
596.36	0.233
596.81	0.236
597.26	0.238
597.71	0.244
598.16	0.245
598.61	0.248
599.06	0.252
599.51	0.256
599.96	0.259
600.41	0.260
600.86	0.263
601.31	0.266
601.76	0.268
602.21	0.272
602.65	0.274
603.10	0.277
603.55	0.280
604.00	0.285
604.45	0.288
604.90	0.289
605.35	0.290
605.80	0.295
606.25	0.298
606.70	0.301
607.15	0.299
607.60	0.303
608.05	0.306
608.50	0.308
608.95	0.309
609.39	0.312
609.84	0.315
610.29	0.317
610.74	0.319
611.19	0.319
611.64	0.321
612.09	0.321
612.54	0.323
612.99	0.323
613.44	0.328
613.88	0.327
614.33	0.330
614.78	0.328
615.23	0.333
615.68	0.332
616.13	0.333
616.58	0.334
617.03	0.332
617.47	0.336
617.92	0.337
618.37	0.337
618.82	0.337
619.27	0.338
619.72	0.338
620.17	0.338
620.61	0.341
621.06	0.340
621.51	0.343
621.96	0.342
622.41	0.345
622.86	0.342
623.30	0.347
623.75	0.345
624.20	0.349
624.65	0.350
625.10	0.347
625.54	0.348
625.99	0.347
626.44	0.351
626.89	0.353
627.34	0.355
627.78	0.356
628.23	0.358
628.68	0.361
629.13	0.362
629.58	0.360
630.02	0.364
630.47	0.366
630.92	0.368
631.37	0.371
631.81	0.373
632.26	0.375
632.71	0.375
633.16	0.379
633.61	0.383
634.05	0.385
634.50	0.387
634.95	0.391
635.40	0.397
635.84	0.399
636.29	0.401
636.74	0.404
637.18	0.408
637.63	0.410
638.08	0.417
638.53	0.419
638.97	0.421
639.42	0.429
639.87	0.432
640.32	0.432
640.76	0.437
641.21	0.444
641.66	0.445
642.10	0.452
642.55	0.457
643.00	0.462
643.44	0.468
643.89	0.473
644.34	0.475
644.79	0.484
645.23	0.487
645.68	0.491
646.13	0.496
646.57	0.501
647.02	0.507
647.47	0.512
647.91	0.514
648.36	0.521
648.81	0.526
649.25	0.533
649.70	0.535
650.15	0.540
650.59	0.546
651.04	0.550
651.48	0.558
651.93	0.560
652.38	0.567
652.82	0.564
653.27	0.573
653.72	0.580
654.16	0.583
654.61	0.590
655.06	0.592
655.50	0.595
655.95	0.598
656.39	0.606
656.84	0.607
657.29	0.612
657.73	0.615
658.18	0.620
658.62	0.624
659.07	0.625
659.52	0.631
659.96	0.634
660.41	0.634
660.85	0.636
661.30	0.639
661.74	0.641
662.19	0.644
662.64	0.648
663.08	0.652
663.53	0.655
663.97	0.653
664.42	0.652
664.86	0.653
665.31	0.657
665.75	0.653
666.20	0.659
666.65	0.654
667.09	0.656
667.54	0.653
667.98	0.649
668.43	0.647
668.87	0.646
669.32	0.641
669.76	0.632
670.21	0.625
670.65	0.624
671.10	0.622
671.54	0.618
671.99	0.611
672.43	0.600
672.88	0.591
673.32	0.586
673.77	0.574
674.21	0.570
674.66	0.557
675.10	0.545
675.55	0.536
675.99	0.527
676.44	0.515
676.88	0.502
677.33	0.494
677.77	0.479
678.22	0.466
678.66	0.453
679.11	0.444
679.55	0.432
679.99	0.422
680.44	0.407
680.88	0.397
681.33	0.382
681.77	0.372
682.22	0.357
682.66	0.345
683.11	0.333
683.55	0.324
683.99	0.312
684.44	0.303
684.88	0.287
685.33	0.283
685.77	0.270
686.21	0.261
686.66	0.248
687.10	0.240
687.55	0.230
687.99	0.222
688.44	0.213
688.88	0.206
689.32	0.197
689.77	0.192
690.21	0.184
690.65	0.173
691.10	0.167
691.54	0.162
691.99	0.154
692.43	0.146
692.87	0.144
693.32	0.136
693.76	0.131
694.20	0.127
694.65	0.121
695.09	0.118
695.53	0.115
695.98	0.109
696.42	0.106
696.86	0.101
697.31	0.097
697.75	0.094
698.19	0.091
698.64	0.088
699.08	0.087
699.52	0.083
699.97	0.082
700.41	0.076
700.85	0.073
701.30	0.072
701.74	0.070
702.18	0.068
702.63	0.066
703.07	0.065
703.51	0.064
703.96	0.061
704.40	0.060
704.84	0.061
705.28	0.057
705.73	0.056
706.17	0.053
706.61	0.052
707.06	0.053
707.50	0.050
707.94	0.046
708.38	0.045
708.83	0.046
709.27	0.047
709.71	0.046
710.15	0.045
710.60	0.043
711.04	0.044
711.48	0.041
711.92	0.039
712.37	0.043
712.81	0.040
713.25	0.040
713.69	0.042
714.13	0.041
714.58	0.038
715.02	0.041
715.46	0.034
715.90	0.037
716.35	0.036
716.79	0.035
717.23	0.037
717.67	0.038
718.11	0.036
718.56	0.035
719.00	0.034
719.44	0.037
719.88	0.037
720.32	0.037
720.76	0.035
721.21	0.033
721.65	0.033
722.09	0.037
722.53	0.036
722.97	0.036
723.41	0.033
723.86	0.035
724.30	0.035
724.74	0.034
725.18	0.034
725.62	0.034
726.06	0.033
726.50	0.035
726.95	0.034
727.39	0.036
727.83	0.036
728.27	0.033
728.71	0.033
729.15	0.034
729.59	0.037
730.03	0.037
730.48	0.036
730.92	0.034
731.36	0.036
731.80	0.036
732.24	0.033
732.68	0.036
733.12	0.038
733.56	0.035
734.00	0.038
734.44	0.037
734.89	0.035
735.33	0.037
735.77	0.033
736.21	0.038
736.65	0.036
737.09	0.037
737.53	0.035
737.97	0.038
738.41	0.036
738.85	0.037
739.29	0.035
739.73	0.039
740.17	0.038
740.61	0.037
741.05	0.036
741.49	0.036
741.93	0.035
742.37	0.038
742.81	0.036
743.26	0.036
743.70	0.035
744.14	0.034
744.58	0.036
745.02	0.035
745.46	0.037
745.90	0.037
746.34	0.038
746.78	0.035
747.22	0.036
747.66	0.035
748.10	0.038
748.54	0.036
748.98	0.037
749.42	0.039
749.86	0.037
750.29	0.034
750.73	0.034
751.17	0.036
751.61	0.037
752.05	0.037
752.49	0.037
752.93	0.033
753.37	0.037
753.81	0.036
754.25	0.035
754.69	0.040
755.13	0.035
755.57	0.037
756.01	0.035
756.45	0.033
756.89	0.033
757.33	0.040
757.77	0.032
758.21	0.033
758.64	0.037
759.08	0.034
759.52	0.035
759.96	0.034
760.40	0.033
760.84	0.035
761.28	0.034
761.72	0.034
762.16	0.034
762.60	0.037
763.03	0.031
763.47	0.036
763.91	0.032
764.35	0.030
764.79	0.033
765.23	0.034
765.67	0.035
766.11	0.033
766.54	0.037
766.98	0.037
767.42	0.034
767.86	0.035
768.30	0.037
768.74	0.036
769.17	0.035
769.61	0.033
770.05	0.037
770.49	0.035
770.93	0.034
771.37	0.032
771.80	0.033
772.24	0.032
772.68	0.032
773.12	0.036
773.56	0.035
774.00	0.035
774.43	0.033
774.87	0.035
775.31	0.034
775.75	0.032
776.19	0.032
776.62	0.036
777.06	0.036
777.50	0.033
777.94	0.032
778.37	0.036
778.81	0.036
779.25	0.034
779.69	0.032
780.13	0.038
780.56	0.035
781.00	0.035
781.44	0.036
781.88	0.035
782.31	0.034
782.75	0.034
783.19	0.031
783.63	0.032
784.06	0.033
784.50	0.032
784.94	0.034
785.37	0.032
785.81	0.033
786.25	0.030
786.69	0.032
787.12	0.034
787.56	0.030
788.00	0.036
788.43	0.034
788.87	0.032
789.31	0.033
789.75	0.033
790.18	0.034
790.62	0.035
791.06	0.034
791.49	0.033
791.93	0.031
792.37	0.033
792.80	0.033
793.24	0.027
793.68	0.033
794.11	0.034
794.55	0.032
794.99	0.031
795.42	0.031
795.86	0.034
796.30	0.032
796.73	0.031
797.17	0.037
797.61	0.031
798.04	0.029
798.48	0.030
798.91	0.034
799.35	0.032
799.79	0.030
800.22	0.033
800.66	0.034
801.10	0.037
801.53	0.033
801.97	0.035
802.40	0.030
802.84	0.031
803.28	0.032
803.71	0.034
804.15	0.035
804.58	0.036
805.02	0.032
805.46	0.033
805.89	0.036
806.33	0.031
806.76	0.034
807.20	0.031
807.63	0.033
808.07	0.032
808.51	0.031
808.94	0.033
809.38	0.031
809.81	0.035
810.25	0.033
810.68	0.033
811.12	0.032
811.55	0.032
811.99	0.032
812.42	0.031
812.86	0.032
813.29	0.032
813.73	0.031
814.17	0.036
814.60	0.032
815.04	0.032
815.47	0.030
815.91	0.037
816.34	0.031
816.78	0.028
817.21	0.031
817.65	0.034
818.08	0.030
818.52	0.030
818.95	0.030
819.39	0.034
819.82	0.029
820.25	0.031
820.69	0.028
821.12	0.032
821.56	0.029
821.99	0.031
822.43	0.029
822.86	0.029
823.30	0.030
823.73	0.027
824.17	0.032
824.60	0.027
825.04	0.040
825.47	0.041
825.90	0.034
826.34	0.033
826.77	0.034
827.21	0.038
827.64	0.037
828.08	0.038
828.51	0.035
828.94	0.039
829.38	0.038
829.81	0.037
830.25	0.038
830.68	0.038
831.11	0.039
831.55	0.036
831.98	0.041
832.42	0.036
832.85	0.042
833.28	0.038
833.72	0.037
834.15	0.036
834.58	0.037
835.02	0.044
835.45	0.040
835.88	0.040
836.32	0.036
836.75	0.042
837.19	0.036
837.62	0.040
838.05	0.040
838.49	0.041
838.92	0.041
839.35	0.037
839.79	0.047
840.22	0.040
840.65	0.041
841.09	0.038
841.52	0.041
841.95	0.038
842.39	0.044
842.82	0.048
843.25	0.042
843.68	0.043
844.12	0.045
844.55	0.042
844.98	0.042
845.42	0.038
845.85	0.040
846.28	0.043
846.71	0.044
847.15	0.043
847.58	0.047
848.01	0.042
848.45	0.041
848.88	0.044
849.31	0.042
849.74	0.041
850.18	0.040
850.61	0.041
851.04	0.050
851.47	0.041
851.91	0.047
852.34	0.047
852.77	0.044
853.20	0.041
853.64	0.046
854.07	0.042
854.50	0.045
854.93	0.041
855.36	0.043
855.80	0.047
856.23	0.043
856.66	0.045
857.09	0.042
857.52	0.043
857.96	0.039
858.39	0.048
858.82	0.042
859.25	0.043
859.68	0.043
860.12	0.046
860.55	0.047
860.98	0.054
861.41	0.047
861.84	0.048
862.27	0.047
862.71	0.047
863.14	0.045
863.57	0.047
864.00	0.051
864.43	0.047
864.86	0.046
865.30	0.044
865.73	0.048
866.16	0.042
866.59	0.041
867.02	0.046
867.45	0.043
867.88	0.050
868.31	0.048
868.75	0.045
869.18	0.044
869.61	0.048
870.04	0.053
870.47	0.042
870.90	0.044
871.33	0.047
871.76	0.045
872.19	0.046
872.62	0.057
873.06	0.049
873.49	0.043
873.92	0.041
874.35	0.057
874.78	0.048
875.21	0.038
875.64	0.046
876.07	0.052
876.50	0.047
876.93	0.053
877.36	0.051
877.79	0.046
878.22	0.045
878.65	0.048
879.08	0.053
879.51	0.054
879.94	0.056
880.37	0.048
880.80	0.053
881.23	0.047
881.67	0.050
882.10	0.049
882.53	0.051
882.96	0.050
883.39	0.056
883.82	0.056
884.25	0.046
884.68	0.053
885.11	0.047
885.54	0.051
885.97	0.049
886.39	0.047
886.82	0.057
887.25	0.048
887.68	0.059
888.11	0.053
888.54	0.058
888.97	0.055
889.40	0.052
889.83	0.051
890.26	0.059
890.69	0.054
891.12	0.051
891.55	0.058
891.98	0.051
892.41	0.056
892.84	0.052
893.27	0.056
893.70	0.053
894.13	0.054
894.56	0.054
894.98	0.057
895.41	0.056
895.84	0.057
896.27	0.061
896.70	0.058
897.13	0.061
897.56	0.063
897.99	0.059
898.42	0.054
898.85	0.060
899.27	0.056
899.70	0.058
900.13	0.053
900.56	0.059
900.99	0.058
901.42	0.058
901.85	0.060
902.28	0.058
902.70	0.059
903.13	0.058
903.56	0.059
903.99	0.063
904.42	0.059
904.85	0.061
905.27	0.061
905.70	0.058
906.13	0.061
906.56	0.062
906.99	0.062
907.42	0.058
907.84	0.060
908.27	0.059
908.70	0.061
909.13	0.059
909.56	0.063
909.98	0.062
910.41	0.056
910.84	0.061
911.27	0.060
911.70	0.056
912.12	0.060
912.55	0.059
912.98	0.059
913.41	0.059
913.84	0.063
914.26	0.054
914.69	0.065
915.12	0.063
915.55	0.057
915.97	0.057
916.40	0.064
916.83	0.058
917.26	0.060
917.68	0.057
918.11	0.058
918.54	0.062
918.97	0.062
919.39	0.061
919.82	0.063
920.25	0.064
920.67	0.068
921.10	0.066
921.53	0.068
921.96	0.067
922.38	0.071
922.81	0.063
923.24	0.062
923.66	0.067
924.09	0.070
924.52	0.065
924.94	0.068
925.37	0.069
925.80	0.070
926.22	0.068
926.65	0.070
927.08	0.072
927.50	0.070
927.93	0.071
928.36	0.071
928.78	0.070
929.21	0.076
929.64	0.075
930.06	0.074
930.49	0.078
930.92	0.079
931.34	0.078
931.77	0.079
932.20	0.084
932.62	0.086
933.05	0.081
933.47	0.089
933.90	0.085
934.33	0.086
934.75	0.085
935.18	0.096
935.61	0.087
936.03	0.090
936.46	0.095
936.88	0.097
937.31	0.095
937.73	0.095
938.16	0.093
938.59	0.102
939.01	0.101
939.44	0.101
939.86	0.109
940.29	0.106
940.71	0.114
941.14	0.114
941.57	0.108
941.99	0.115
942.42	0.119
942.84	0.117
943.27	0.118
943.69	0.125
944.12	0.133
944.54	0.126
944.97	0.123
945.39	0.125
945.82	0.133
946.24	0.123
946.67	0.131
947.09	0.136
947.52	0.140
947.94	0.135
948.37	0.140
948.79	0.153
949.22	0.148
949.64	0.150
950.07	0.151
950.49	0.156
950.92	0.156
951.34	0.160
951.77	0.165
952.19	0.167
952.62	0.171
953.04	0.180
953.47	0.181
953.89	0.181
954.32	0.181
954.74	0.181
955.17	0.184
955.59	0.188
956.01	0.192
956.44	0.196
956.86	0.201
957.29	0.202
957.71	0.209
958.14	0.208
958.56	0.205
958.98	0.210
959.41	0.207
959.83	0.207
960.26	0.207
960.68	0.214
961.10	0.206
961.53	0.216
961.95	0.217
962.38	0.224
962.80	0.218
963.22	0.222
963.65	0.225
964.07	0.217
964.50	0.224
964.92	0.225
965.34	0.222
965.77	0.220
966.19	0.220
966.61	0.230
967.04	0.227
967.46	0.227
967.88	0.223
968.31	0.234
968.73	0.234
969.15	0.235
969.58	0.228
970.00	0.231
970.42	0.238
970.85	0.227
971.27	0.235
971.69	0.233
972.12	0.234
972.54	0.234
972.96	0.234
973.39	0.239
973.81	0.237
974.23	0.235
974.65	0.230
975.08	0.236
975.50	0.233
975.92	0.240
976.35	0.239
976.77	0.235
977.19	0.235
977.61	0.243
978.04	0.233
978.46	0.234
978.88	0.238
979.30	0.242
979.73	0.241
980.15	0.236
980.57	0.238
980.99	0.239
981.42	0.240
981.84	0.238
982.26	0.235
982.68	0.233
983.11	0.236
983.53	0.234
983.95	0.234
984.37	0.234
984.79	0.234
985.22	0.241
985.64	0.230
986.06	0.231
986.48	0.232
986.90	0.229
987.33	0.227
987.75	0.222
988.17	0.224
988.59	0.229
989.01	0.227
989.43	0.232
989.86	0.234
990.28	0.224
990.70	0.229
991.12	0.224
991.54	0.221
991.96	0.218
992.39	0.215
992.81	0.227
993.23	0.218
993.65	0.216
994.07	0.223
994.49	0.217
994.91	0.220
995.34	0.217
995.76	0.220
996.18	0.220
996.60	0.216
997.02	0.202
997.44	0.213
997.86	0.210
998.28	0.216
998.70	0.211
999.12	0.212
999.55	0.217
999.97	0.214
1000.39	0.213
1000.81	0.208
1001.23	0.209
1001.65	0.208
1002.07	0.207
1002.49	0.208
1002.91	0.206
1003.33	0.208
1003.75	0.210
1004.17	0.209
1004.59	0.201
1005.01	0.197
1005.43	0.204
1005.85	0.199
1006.28	0.201
1006.70	0.207
1007.12	0.206
1007.54	0.194
1007.96	0.187
1008.38	0.189
1008.80	0.192
1009.22	0.188
1009.64	0.194
1010.06	0.188
1010.48	0.203
1010.90	0.185
1011.32	0.188
1011.74	0.186
1012.16	0.197
1012.58	0.188
1013.00	0.188
1013.42	0.204
1013.84	0.186
1014.26	0.190
1014.67	0.189
1015.09	0.186
1015.51	0.187
1015.93	0.182
1016.35	0.187
1016.77	0.173
1017.19	0.165
1017.61	0.170
1018.03	0.178
1018.45	0.161
1018.87	0.172
1019.29	0.172
1019.71	0.171
1020.13	0.158
1020.55	0.170
1020.97	0.175
1021.38	0.164
1021.80	0.161
1022.22	0.166
1022.64	0.157
1023.06	0.147
1023.48	0.157
1023.90	0.178
1024.32	0.168
1024.74	0.151
1025.15	0.164
1025.57	0.154
1025.99	0.140
1026.41	0.145
1026.83	0.148
1027.25	0.151
1027.67	0.153
1028.08	0.149
1028.50	0.168
1028.92	0.151
1029.34	0.159
1029.76	0.148
1030.18	0.152
1030.60	0.140
1031.01	0.135
1031.43	0.143
1031.85	0.148
1032.27	0.126
1032.69	0.138
1033.10	0.131
1033.52	0.145
1033.94	0.145
1034.36	0.126
1034.78	0.142
1035.19	0.135
1035.61	0.123
1036.03	0.125
1036.45	0.135
1036.87	0.122
1037.28	0.119
1037.70	0.145
1038.12	0.136
1038.54	0.122
1038.95	0.115
1039.37	0.124
1039.79	0.122
1040.21	0.141
1040.62	0.125
1041.04	0.114
1041.46	0.121
1041.88	0.111
1042.29	0.129
1042.71	0.102
1043.13	0.111
1043.55	0.124
1043.96	0.136
1044.38	0.124
1044.80	0.128
1045.21	0.118
1045.63	0.121
1046.05	0.115
1046.47	0.115
1046.88	0.118
1047.30	0.118
1047.72	0.109
1048.13	0.126
1048.55	0.114
1048.97	0.088
1049.38	0.117
1049.80	0.130
1050.22	0.112
1050.63	0.138
1051.05	0.101
1051.47	0.134
1051.88	0.113
1052.30	0.117
1052.72	0.114
1053.13	0.113
1053.55	0.104
1053.97	0.114
1054.38	0.132
1054.80	0.128
1055.21	0.123
1055.63	0.117
1056.05	0.136
1056.46	0.125
1056.88	0.108
1057.29	0.102
1057.71	0.076
1058.13	0.102
1058.54	0.125
1058.96	0.133
1059.37	0.113
1059.79	0.128
1060.21	0.127
1060.62	0.147
1061.04	0.092
1061.45	0.113
1061.87	0.125
1062.28	0.062
1062.70	0.154
1063.12	0.134
1063.53	0.131
1063.95	0.090
1064.36	0.150
1064.78	0.137
1065.19	0.107
1065.61	0.178
1066.02	0.164
1066.44	0.154
1066.85	0.140
1067.27	0.078
1067.68	0.152
1068.10	0.105
1068.51	0.092
1068.93	0.147
1069.35	0.173
1069.76	0.154
1070.17	0.246
1070.59	0.063
1071.00	0.290
1071.42	0.150
1071.83	0.207
1072.25	0.146
1072.66	0.161
1073.08	0.148
1073.49	0.178
1073.91	0.131
1074.32	0.202
1074.74	0.196
1075.15	0.259
1075.57	0.348
1075.98	0.178
1076.40	0.281
1076.81	0.254
1077.22	0.219
1077.64	0.166
1078.05	0.294
1078.47	0.197
1078.88	0.138
1079.30	0.456
1079.71	0.040
1080.12	0.413
1080.54	0.235
1080.95	0.600
1081.37	0.361
1081.78	0.575
1082.19	0.637
1082.61	-0.000
1083.02	0.482
1083.44	0.017
1083.85	0.346
1084.26	0.140
1084.68	0.480
1085.09	0.004
1085.50	1.069
1085.92	-0.000
1086.33	0.491
1086.74	0.282
1087.16	1.556
1087.57	1.136
1087.98	0.637
1088.40	0.547
1088.81	1.489
1089.22	0.426
1089.64	0.395
1090.05	0.511
1090.46	-0.477
1090.88	0.803
1091.29	0.537
1091.70	-0.000
1092.12	-0.000
1092.53	0.477
1092.94	0.532
1093.36	0.190
1093.77	0.166
1094.18	-0.000
1094.59	-0.000
1095.01	-0.000
1095.42	0.460
1095.83	0.243
1096.25	-0.000
1096.66	0.561
1097.07	0.471
1097.48	0.465
1097.90	0.691
1098.31	0.011
1098.72	-0.000
1099.13	0.151
>>>>>End Processed Spectral Data<<<<<
