SpectraSuite Data File
++++++++++++++++++++++++++++++++++++
Date: Mon Jul 10 13:38:17 CEST 2017
User: IPCE
Dark Spectrum Present: Yes
Reference Spectrum Present: Yes
Number of Sampled Component Spectra: 1
Spectrometers: HR+C0708
Integration Time (usec): 1000 (HR+C0708)
Spectra Averaged: 10 (HR+C0708)
Boxcar Smoothing: 0 (HR+C0708)
Correct for Electrical Dark: No (HR+C0708)
Strobe/Lamp Enabled: No (HR+C0708)
Correct for Detector Non-linearity: No (HR+C0708)
Correct for Stray Light: No (HR+C0708)
Number of Pixels in Processed Spectrum: 2048
>>>>>Begin Processed Spectral Data<<<<<
188.76	0.265
189.23	0.932
189.70	-0.000
190.17	0.431
190.64	-0.405
191.12	-0.000
191.59	-0.000
192.06	0.325
192.53	0.336
193.01	-0.000
193.48	-0.000
193.95	0.986
194.42	0.481
194.90	-0.000
195.37	-0.000
195.84	0.125
196.31	-0.000
196.78	0.429
197.26	0.111
197.73	0.592
198.20	-0.000
198.67	-0.000
199.14	-0.152
199.62	-0.000
200.09	0.944
200.56	0.705
201.03	0.364
201.50	0.764
201.97	0.429
202.45	0.583
202.92	0.515
203.39	1.139
203.86	0.516
204.33	0.331
204.80	0.546
205.28	0.951
205.75	0.416
206.22	0.377
206.69	0.803
207.16	0.621
207.63	0.194
208.11	0.449
208.58	0.538
209.05	0.370
209.52	0.305
209.99	0.732
210.46	0.797
210.93	0.378
211.41	0.329
211.88	0.659
212.35	0.483
212.82	0.349
213.29	0.346
213.76	0.636
214.23	0.450
214.70	0.398
215.18	0.844
215.65	0.808
216.12	0.506
216.59	0.628
217.06	0.666
217.53	0.423
218.00	0.386
218.47	0.497
218.94	1.122
219.41	0.456
219.89	0.439
220.36	0.519
220.83	0.642
221.30	0.418
221.77	0.550
222.24	0.987
222.71	0.872
223.18	0.615
223.65	0.678
224.12	0.769
224.59	0.593
225.06	0.655
225.54	0.914
226.01	0.895
226.48	0.776
226.95	1.160
227.42	1.072
227.89	1.017
228.36	1.109
228.83	1.226
229.30	1.341
229.77	0.973
230.24	1.481
230.71	1.534
231.18	1.561
231.65	1.358
232.12	1.687
232.59	1.853
233.06	1.388
233.53	1.506
234.00	1.766
234.47	1.813
234.94	1.717
235.41	1.694
235.88	2.008
236.35	1.747
236.82	1.713
237.29	2.269
237.76	2.092
238.23	1.936
238.70	2.089
239.17	2.103
239.64	2.222
240.11	2.030
240.58	2.109
241.05	2.467
241.52	2.138
241.99	2.082
242.46	2.394
242.93	2.459
243.40	2.209
243.87	2.349
244.34	2.610
244.81	2.277
245.28	2.377
245.75	2.208
246.22	2.535
246.69	2.328
247.16	2.414
247.63	2.931
248.10	2.566
248.57	2.423
249.04	2.598
249.51	2.792
249.98	2.433
250.45	2.393
250.92	2.698
251.39	2.701
251.85	2.386
252.32	2.499
252.79	2.717
253.26	2.580
253.73	2.365
254.20	2.372
254.67	2.495
255.14	2.574
255.61	2.417
256.08	2.650
256.55	2.786
257.02	2.546
257.49	2.479
257.95	2.934
258.42	2.524
258.89	2.492
259.36	2.764
259.83	2.671
260.30	2.711
260.77	2.568
261.24	2.810
261.71	2.582
262.17	2.484
262.64	2.603
263.11	2.630
263.58	3.010
264.05	2.480
264.52	2.629
264.99	3.090
265.46	2.521
265.92	2.629
266.39	2.768
266.86	3.029
267.33	2.639
267.80	2.655
268.27	2.901
268.74	2.809
269.20	2.560
269.67	2.650
270.14	2.770
270.61	2.513
271.08	2.623
271.55	2.922
272.01	2.700
272.48	2.545
272.95	2.665
273.42	2.994
273.89	2.631
274.36	2.688
274.82	2.708
275.29	2.784
275.76	2.556
276.23	2.570
276.70	2.557
277.16	2.598
277.63	2.617
278.10	2.610
278.57	3.729
279.04	2.494
279.50	2.363
279.97	2.594
280.44	2.589
280.91	2.579
281.38	2.815
281.84	2.624
282.31	2.537
282.78	2.498
283.25	2.641
283.72	2.821
284.18	2.487
284.65	2.700
285.12	2.647
285.59	2.773
286.05	2.458
286.52	2.699
286.99	2.759
287.46	2.467
287.92	2.483
288.39	2.563
288.86	2.723
289.33	2.531
289.79	2.516
290.26	2.611
290.73	2.488
291.20	2.400
291.66	2.459
292.13	2.687
292.60	2.427
293.07	2.474
293.53	2.566
294.00	2.598
294.47	2.490
294.93	2.395
295.40	2.690
295.87	2.434
296.34	2.460
296.80	2.553
297.27	2.877
297.74	2.470
298.20	2.503
298.67	2.561
299.14	2.630
299.60	2.457
300.07	2.357
300.54	2.811
301.01	2.587
301.47	2.414
301.94	2.542
302.41	2.685
302.87	2.288
303.34	2.480
303.81	2.320
304.27	2.414
304.74	2.267
305.21	2.289
305.67	2.452
306.14	2.354
306.61	2.365
307.07	2.461
307.54	2.445
308.01	2.362
308.47	2.452
308.94	2.570
309.40	2.485
309.87	2.284
310.34	2.358
310.80	2.513
311.27	2.314
311.74	2.362
312.20	2.404
312.67	2.413
313.13	2.310
313.60	2.388
314.07	2.394
314.53	2.369
315.00	2.270
315.47	2.304
315.93	2.417
316.40	2.277
316.86	2.333
317.33	2.426
317.80	2.350
318.26	2.324
318.73	2.372
319.19	2.335
319.66	2.258
320.13	2.209
320.59	2.253
321.06	2.212
321.52	2.182
321.99	2.130
322.45	2.224
322.92	2.128
323.39	2.068
323.85	2.083
324.32	2.115
324.78	1.993
325.25	2.020
325.71	1.980
326.18	1.926
326.64	1.901
327.11	1.824
327.58	1.883
328.04	1.776
328.51	1.707
328.97	1.700
329.44	1.678
329.90	1.590
330.37	1.560
330.83	1.516
331.30	1.479
331.76	1.406
332.23	1.353
332.69	1.327
333.16	1.241
333.62	1.200
334.09	1.151
334.56	1.089
335.02	1.030
335.49	0.972
335.95	0.925
336.42	0.875
336.88	0.822
337.35	0.782
337.81	0.736
338.28	0.691
338.74	0.663
339.20	0.627
339.67	0.594
340.13	0.552
340.60	0.524
341.06	0.492
341.53	0.457
341.99	0.429
342.46	0.403
342.92	0.381
343.39	0.356
343.85	0.337
344.32	0.321
344.78	0.307
345.25	0.288
345.71	0.274
346.17	0.255
346.64	0.237
347.10	0.222
347.57	0.206
348.03	0.198
348.50	0.185
348.96	0.176
349.43	0.170
349.89	0.156
350.35	0.154
350.82	0.148
351.28	0.141
351.75	0.134
352.21	0.131
352.67	0.128
353.14	0.124
353.60	0.119
354.07	0.115
354.53	0.110
355.00	0.111
355.46	0.106
355.92	0.105
356.39	0.101
356.85	0.102
357.31	0.099
357.78	0.093
358.24	0.094
358.71	0.092
359.17	0.086
359.63	0.092
360.10	0.088
360.56	0.086
361.03	0.085
361.49	0.084
361.95	0.084
362.42	0.087
362.88	0.084
363.34	0.085
363.81	0.082
364.27	0.086
364.73	0.083
365.20	0.082
365.66	0.077
366.12	0.081
366.59	0.081
367.05	0.077
367.51	0.077
367.98	0.078
368.44	0.078
368.90	0.080
369.37	0.075
369.83	0.075
370.29	0.073
370.76	0.074
371.22	0.077
371.68	0.073
372.15	0.074
372.61	0.075
373.07	0.075
373.54	0.070
374.00	0.072
374.46	0.077
374.92	0.074
375.39	0.073
375.85	0.072
376.31	0.075
376.78	0.073
377.24	0.070
377.70	0.072
378.16	0.072
378.63	0.070
379.09	0.073
379.55	0.073
380.01	0.069
380.48	0.068
380.94	0.070
381.40	0.071
381.87	0.069
382.33	0.072
382.79	0.071
383.25	0.070
383.72	0.071
384.18	0.068
384.64	0.070
385.10	0.069
385.56	0.068
386.03	0.066
386.49	0.068
386.95	0.066
387.41	0.069
387.88	0.068
388.34	0.067
388.80	0.066
389.26	0.066
389.72	0.068
390.19	0.067
390.65	0.065
391.11	0.067
391.57	0.065
392.04	0.067
392.50	0.067
392.96	0.066
393.42	0.068
393.88	0.066
394.34	0.066
394.81	0.066
395.27	0.068
395.73	0.063
396.19	0.063
396.65	0.067
397.12	0.065
397.58	0.062
398.04	0.065
398.50	0.063
398.96	0.064
399.42	0.065
399.89	0.066
400.35	0.062
400.81	0.064
401.27	0.063
401.73	0.065
402.19	0.061
402.65	0.062
403.12	0.059
403.58	0.059
404.04	0.060
404.50	0.060
404.96	0.059
405.42	0.059
405.88	0.057
406.34	0.059
406.81	0.059
407.27	0.055
407.73	0.055
408.19	0.059
408.65	0.056
409.11	0.056
409.57	0.054
410.03	0.056
410.49	0.053
410.96	0.054
411.42	0.054
411.88	0.053
412.34	0.054
412.80	0.054
413.26	0.054
413.72	0.054
414.18	0.051
414.64	0.051
415.10	0.054
415.56	0.051
416.02	0.053
416.48	0.057
416.95	0.049
417.41	0.050
417.87	0.050
418.33	0.050
418.79	0.051
419.25	0.047
419.71	0.051
420.17	0.052
420.63	0.049
421.09	0.051
421.55	0.052
422.01	0.050
422.47	0.048
422.93	0.050
423.39	0.052
423.85	0.050
424.31	0.052
424.77	0.051
425.23	0.051
425.69	0.050
426.15	0.051
426.61	0.051
427.07	0.051
427.53	0.050
427.99	0.047
428.45	0.050
428.91	0.048
429.37	0.048
429.83	0.052
430.29	0.052
430.75	0.052
431.21	0.050
431.67	0.048
432.13	0.048
432.59	0.043
433.05	0.047
433.51	0.048
433.97	0.047
434.43	0.050
434.89	0.048
435.35	0.048
435.81	0.044
436.27	0.045
436.73	0.045
437.19	0.047
437.65	0.049
438.11	0.047
438.57	0.047
439.03	0.043
439.48	0.047
439.94	0.048
440.40	0.047
440.86	0.047
441.32	0.045
441.78	0.047
442.24	0.047
442.70	0.043
443.16	0.046
443.62	0.047
444.08	0.047
444.54	0.046
444.99	0.047
445.45	0.045
445.91	0.046
446.37	0.047
446.83	0.044
447.29	0.046
447.75	0.043
448.21	0.047
448.67	0.046
449.12	0.039
449.58	0.044
450.04	0.046
450.50	0.045
450.96	0.044
451.42	0.045
451.88	0.046
452.34	0.044
452.79	0.044
453.25	0.050
453.71	0.045
454.17	0.044
454.63	0.044
455.09	0.046
455.55	0.043
456.00	0.044
456.46	0.045
456.92	0.043
457.38	0.041
457.84	0.046
458.30	0.045
458.75	0.045
459.21	0.044
459.67	0.049
460.13	0.044
460.59	0.045
461.04	0.047
461.50	0.048
461.96	0.044
462.42	0.047
462.88	0.044
463.33	0.044
463.79	0.045
464.25	0.046
464.71	0.045
465.17	0.045
465.62	0.044
466.08	0.048
466.54	0.045
467.00	0.047
467.46	0.045
467.91	0.045
468.37	0.046
468.83	0.047
469.29	0.047
469.74	0.047
470.20	0.048
470.66	0.046
471.12	0.047
471.57	0.048
472.03	0.046
472.49	0.048
472.95	0.046
473.40	0.048
473.86	0.048
474.32	0.048
474.78	0.047
475.23	0.047
475.69	0.048
476.15	0.047
476.60	0.048
477.06	0.046
477.52	0.046
477.98	0.048
478.43	0.049
478.89	0.048
479.35	0.045
479.80	0.050
480.26	0.050
480.72	0.050
481.18	0.049
481.63	0.050
482.09	0.046
482.55	0.051
483.00	0.050
483.46	0.049
483.92	0.048
484.37	0.050
484.83	0.048
485.29	0.050
485.74	0.049
486.20	0.051
486.66	0.050
487.11	0.052
487.57	0.049
488.03	0.050
488.48	0.050
488.94	0.051
489.40	0.050
489.85	0.051
490.31	0.052
490.77	0.048
491.22	0.049
491.68	0.051
492.13	0.049
492.59	0.050
493.05	0.050
493.50	0.050
493.96	0.049
494.42	0.050
494.87	0.050
495.33	0.052
495.78	0.052
496.24	0.050
496.70	0.050
497.15	0.052
497.61	0.051
498.06	0.053
498.52	0.050
498.98	0.053
499.43	0.053
499.89	0.052
500.34	0.051
500.80	0.052
501.25	0.052
501.71	0.052
502.17	0.051
502.62	0.052
503.08	0.050
503.53	0.052
503.99	0.048
504.44	0.050
504.90	0.051
505.36	0.050
505.81	0.050
506.27	0.053
506.72	0.052
507.18	0.051
507.63	0.050
508.09	0.051
508.54	0.050
509.00	0.050
509.45	0.049
509.91	0.050
510.36	0.049
510.82	0.051
511.27	0.052
511.73	0.051
512.19	0.048
512.64	0.050
513.10	0.050
513.55	0.049
514.01	0.052
514.46	0.051
514.92	0.047
515.37	0.048
515.83	0.051
516.28	0.049
516.73	0.049
517.19	0.048
517.64	0.051
518.10	0.052
518.55	0.048
519.01	0.049
519.46	0.047
519.92	0.049
520.37	0.052
520.83	0.049
521.28	0.052
521.74	0.051
522.19	0.047
522.65	0.048
523.10	0.049
523.55	0.051
524.01	0.050
524.46	0.052
524.92	0.052
525.37	0.052
525.83	0.049
526.28	0.049
526.73	0.051
527.19	0.052
527.64	0.051
528.10	0.053
528.55	0.051
529.01	0.053
529.46	0.051
529.91	0.053
530.37	0.054
530.82	0.050
531.28	0.052
531.73	0.054
532.18	0.054
532.64	0.053
533.09	0.054
533.54	0.052
534.00	0.053
534.45	0.056
534.91	0.056
535.36	0.053
535.81	0.054
536.27	0.056
536.72	0.054
537.17	0.054
537.63	0.057
538.08	0.059
538.54	0.056
538.99	0.059
539.44	0.059
539.90	0.059
540.35	0.059
540.80	0.062
541.26	0.060
541.71	0.058
542.16	0.061
542.62	0.062
543.07	0.061
543.52	0.061
543.98	0.063
544.43	0.063
544.88	0.065
545.34	0.063
545.79	0.065
546.24	0.066
546.69	0.066
547.15	0.067
547.60	0.068
548.05	0.069
548.51	0.067
548.96	0.069
549.41	0.071
549.86	0.070
550.32	0.073
550.77	0.073
551.22	0.075
551.68	0.074
552.13	0.073
552.58	0.076
553.03	0.077
553.49	0.076
553.94	0.077
554.39	0.079
554.84	0.077
555.30	0.081
555.75	0.082
556.20	0.079
556.65	0.081
557.11	0.085
557.56	0.085
558.01	0.086
558.46	0.086
558.92	0.089
559.37	0.090
559.82	0.088
560.27	0.088
560.72	0.090
561.18	0.094
561.63	0.092
562.08	0.093
562.53	0.094
562.99	0.097
563.44	0.096
563.89	0.097
564.34	0.098
564.79	0.099
565.25	0.100
565.70	0.104
566.15	0.103
566.60	0.101
567.05	0.105
567.50	0.107
567.96	0.106
568.41	0.108
568.86	0.111
569.31	0.111
569.76	0.112
570.21	0.112
570.67	0.115
571.12	0.115
571.57	0.116
572.02	0.119
572.47	0.119
572.92	0.119
573.37	0.120
573.83	0.121
574.28	0.123
574.73	0.123
575.18	0.127
575.63	0.126
576.08	0.128
576.53	0.128
576.98	0.132
577.44	0.133
577.89	0.135
578.34	0.136
578.79	0.138
579.24	0.140
579.69	0.140
580.14	0.144
580.59	0.145
581.04	0.146
581.49	0.150
581.95	0.151
582.40	0.153
582.85	0.154
583.30	0.157
583.75	0.158
584.20	0.163
584.65	0.162
585.10	0.166
585.55	0.170
586.00	0.171
586.45	0.174
586.90	0.178
587.35	0.177
587.80	0.179
588.25	0.181
588.71	0.185
589.16	0.191
589.61	0.192
590.06	0.195
590.51	0.200
590.96	0.197
591.41	0.203
591.86	0.205
592.31	0.210
592.76	0.210
593.21	0.212
593.66	0.220
594.11	0.218
594.56	0.221
595.01	0.227
595.46	0.229
595.91	0.233
596.36	0.234
596.81	0.237
597.26	0.242
597.71	0.246
598.16	0.248
598.61	0.252
599.06	0.253
599.51	0.257
599.96	0.261
600.41	0.265
600.86	0.267
601.31	0.270
601.76	0.273
602.21	0.276
602.65	0.279
603.10	0.285
603.55	0.288
604.00	0.287
604.45	0.291
604.90	0.297
605.35	0.300
605.80	0.301
606.25	0.303
606.70	0.309
607.15	0.309
607.60	0.311
608.05	0.313
608.50	0.317
608.95	0.318
609.39	0.320
609.84	0.322
610.29	0.326
610.74	0.326
611.19	0.329
611.64	0.330
612.09	0.329
612.54	0.333
612.99	0.335
613.44	0.337
613.88	0.337
614.33	0.338
614.78	0.339
615.23	0.342
615.68	0.342
616.13	0.344
616.58	0.345
617.03	0.344
617.47	0.346
617.92	0.346
618.37	0.347
618.82	0.347
619.27	0.349
619.72	0.349
620.17	0.350
620.61	0.349
621.06	0.351
621.51	0.355
621.96	0.353
622.41	0.354
622.86	0.356
623.30	0.355
623.75	0.356
624.20	0.359
624.65	0.361
625.10	0.358
625.54	0.358
625.99	0.361
626.44	0.365
626.89	0.363
627.34	0.365
627.78	0.366
628.23	0.370
628.68	0.368
629.13	0.373
629.58	0.372
630.02	0.376
630.47	0.377
630.92	0.380
631.37	0.382
631.81	0.384
632.26	0.388
632.71	0.390
633.16	0.392
633.61	0.393
634.05	0.399
634.50	0.401
634.95	0.406
635.40	0.408
635.84	0.410
636.29	0.416
636.74	0.420
637.18	0.422
637.63	0.424
638.08	0.432
638.53	0.435
638.97	0.438
639.42	0.444
639.87	0.446
640.32	0.451
640.76	0.456
641.21	0.460
641.66	0.460
642.10	0.470
642.55	0.475
643.00	0.480
643.44	0.486
643.89	0.493
644.34	0.495
644.79	0.501
645.23	0.505
645.68	0.514
646.13	0.519
646.57	0.523
647.02	0.530
647.47	0.536
647.91	0.541
648.36	0.546
648.81	0.556
649.25	0.557
649.70	0.560
650.15	0.567
650.59	0.571
651.04	0.577
651.48	0.583
651.93	0.586
652.38	0.598
652.82	0.595
653.27	0.599
653.72	0.608
654.16	0.615
654.61	0.617
655.06	0.624
655.50	0.624
655.95	0.629
656.39	0.635
656.84	0.639
657.29	0.646
657.73	0.644
658.18	0.653
658.62	0.658
659.07	0.661
659.52	0.662
659.96	0.669
660.41	0.671
660.85	0.671
661.30	0.674
661.74	0.680
662.19	0.684
662.64	0.683
663.08	0.688
663.53	0.695
663.97	0.693
664.42	0.691
664.86	0.694
665.31	0.694
665.75	0.689
666.20	0.696
666.65	0.699
667.09	0.691
667.54	0.686
667.98	0.685
668.43	0.687
668.87	0.683
669.32	0.677
669.76	0.674
670.21	0.670
670.65	0.665
671.10	0.658
671.54	0.654
671.99	0.647
672.43	0.635
672.88	0.630
673.32	0.620
673.77	0.612
674.21	0.599
674.66	0.593
675.10	0.581
675.55	0.568
675.99	0.558
676.44	0.546
676.88	0.533
677.33	0.517
677.77	0.506
678.22	0.496
678.66	0.480
679.11	0.468
679.55	0.456
679.99	0.443
680.44	0.429
680.88	0.414
681.33	0.401
681.77	0.387
682.22	0.375
682.66	0.364
683.11	0.350
683.55	0.337
683.99	0.326
684.44	0.316
684.88	0.302
685.33	0.289
685.77	0.280
686.21	0.270
686.66	0.257
687.10	0.244
687.55	0.240
687.99	0.228
688.44	0.220
688.88	0.209
689.32	0.200
689.77	0.195
690.21	0.186
690.65	0.176
691.10	0.171
691.54	0.162
691.99	0.155
692.43	0.148
692.87	0.142
693.32	0.136
693.76	0.130
694.20	0.126
694.65	0.120
695.09	0.115
695.53	0.112
695.98	0.108
696.42	0.103
696.86	0.099
697.31	0.095
697.75	0.091
698.19	0.087
698.64	0.084
699.08	0.083
699.52	0.076
699.97	0.075
700.41	0.072
700.85	0.068
701.30	0.067
701.74	0.065
702.18	0.061
702.63	0.059
703.07	0.059
703.51	0.057
703.96	0.055
704.40	0.053
704.84	0.054
705.28	0.050
705.73	0.051
706.17	0.048
706.61	0.048
707.06	0.044
707.50	0.044
707.94	0.042
708.38	0.039
708.83	0.041
709.27	0.039
709.71	0.037
710.15	0.039
710.60	0.036
711.04	0.036
711.48	0.036
711.92	0.032
712.37	0.034
712.81	0.032
713.25	0.032
713.69	0.035
714.13	0.033
714.58	0.031
715.02	0.032
715.46	0.029
715.90	0.028
716.35	0.029
716.79	0.029
717.23	0.030
717.67	0.029
718.11	0.028
718.56	0.028
719.00	0.027
719.44	0.026
719.88	0.031
720.32	0.027
720.76	0.028
721.21	0.026
721.65	0.027
722.09	0.027
722.53	0.026
722.97	0.028
723.41	0.024
723.86	0.029
724.30	0.026
724.74	0.027
725.18	0.025
725.62	0.025
726.06	0.026
726.50	0.028
726.95	0.026
727.39	0.026
727.83	0.029
728.27	0.025
728.71	0.025
729.15	0.025
729.59	0.028
730.03	0.027
730.48	0.027
730.92	0.026
731.36	0.026
731.80	0.026
732.24	0.025
732.68	0.028
733.12	0.029
733.56	0.028
734.00	0.029
734.44	0.030
734.89	0.027
735.33	0.030
735.77	0.028
736.21	0.030
736.65	0.026
737.09	0.028
737.53	0.029
737.97	0.032
738.41	0.027
738.85	0.032
739.29	0.028
739.73	0.028
740.17	0.029
740.61	0.029
741.05	0.030
741.49	0.027
741.93	0.029
742.37	0.030
742.81	0.028
743.26	0.028
743.70	0.028
744.14	0.027
744.58	0.029
745.02	0.026
745.46	0.028
745.90	0.030
746.34	0.032
746.78	0.028
747.22	0.029
747.66	0.030
748.10	0.029
748.54	0.031
748.98	0.029
749.42	0.027
749.86	0.031
750.29	0.028
750.73	0.026
751.17	0.027
751.61	0.028
752.05	0.027
752.49	0.028
752.93	0.025
753.37	0.031
753.81	0.029
754.25	0.028
754.69	0.029
755.13	0.026
755.57	0.028
756.01	0.026
756.45	0.027
756.89	0.028
757.33	0.033
757.77	0.026
758.21	0.028
758.64	0.030
759.08	0.024
759.52	0.026
759.96	0.026
760.40	0.026
760.84	0.028
761.28	0.028
761.72	0.026
762.16	0.028
762.60	0.029
763.03	0.026
763.47	0.028
763.91	0.026
764.35	0.026
764.79	0.027
765.23	0.027
765.67	0.027
766.11	0.026
766.54	0.030
766.98	0.030
767.42	0.027
767.86	0.031
768.30	0.031
768.74	0.028
769.17	0.027
769.61	0.026
770.05	0.028
770.49	0.030
770.93	0.028
771.37	0.026
771.80	0.026
772.24	0.027
772.68	0.027
773.12	0.030
773.56	0.027
774.00	0.029
774.43	0.027
774.87	0.025
775.31	0.026
775.75	0.026
776.19	0.026
776.62	0.029
777.06	0.030
777.50	0.027
777.94	0.026
778.37	0.029
778.81	0.029
779.25	0.028
779.69	0.027
780.13	0.029
780.56	0.031
781.00	0.026
781.44	0.028
781.88	0.028
782.31	0.028
782.75	0.024
783.19	0.027
783.63	0.027
784.06	0.026
784.50	0.027
784.94	0.031
785.37	0.024
785.81	0.029
786.25	0.028
786.69	0.027
787.12	0.028
787.56	0.025
788.00	0.027
788.43	0.029
788.87	0.028
789.31	0.025
789.75	0.030
790.18	0.027
790.62	0.026
791.06	0.025
791.49	0.029
791.93	0.025
792.37	0.027
792.80	0.027
793.24	0.025
793.68	0.027
794.11	0.025
794.55	0.028
794.99	0.024
795.42	0.026
795.86	0.024
796.30	0.022
796.73	0.030
797.17	0.028
797.61	0.026
798.04	0.027
798.48	0.027
798.91	0.022
799.35	0.030
799.79	0.025
800.22	0.026
800.66	0.026
801.10	0.027
801.53	0.029
801.97	0.025
802.40	0.028
802.84	0.030
803.28	0.026
803.71	0.023
804.15	0.024
804.58	0.026
805.02	0.022
805.46	0.027
805.89	0.030
806.33	0.026
806.76	0.023
807.20	0.028
807.63	0.027
808.07	0.027
808.51	0.022
808.94	0.028
809.38	0.027
809.81	0.025
810.25	0.030
810.68	0.027
811.12	0.027
811.55	0.027
811.99	0.028
812.42	0.030
812.86	0.032
813.29	0.025
813.73	0.030
814.17	0.028
814.60	0.024
815.04	0.030
815.47	0.027
815.91	0.028
816.34	0.025
816.78	0.025
817.21	0.029
817.65	0.026
818.08	0.027
818.52	0.025
818.95	0.023
819.39	0.024
819.82	0.025
820.25	0.030
820.69	0.025
821.12	0.028
821.56	0.024
821.99	0.031
822.43	0.027
822.86	0.028
823.30	0.028
823.73	0.027
824.17	0.023
824.60	0.029
825.04	0.031
825.47	0.027
825.90	0.028
826.34	0.031
826.77	0.029
827.21	0.029
827.64	0.028
828.08	0.033
828.51	0.032
828.94	0.031
829.38	0.030
829.81	0.031
830.25	0.028
830.68	0.034
831.11	0.037
831.55	0.034
831.98	0.031
832.42	0.033
832.85	0.038
833.28	0.034
833.72	0.033
834.15	0.032
834.58	0.032
835.02	0.036
835.45	0.034
835.88	0.033
836.32	0.028
836.75	0.033
837.19	0.029
837.62	0.031
838.05	0.034
838.49	0.031
838.92	0.041
839.35	0.035
839.79	0.039
840.22	0.033
840.65	0.035
841.09	0.034
841.52	0.035
841.95	0.037
842.39	0.037
842.82	0.035
843.25	0.032
843.68	0.037
844.12	0.041
844.55	0.033
844.98	0.038
845.42	0.036
845.85	0.033
846.28	0.032
846.71	0.037
847.15	0.035
847.58	0.034
848.01	0.037
848.45	0.037
848.88	0.045
849.31	0.030
849.74	0.040
850.18	0.032
850.61	0.030
851.04	0.045
851.47	0.038
851.91	0.040
852.34	0.038
852.77	0.042
853.20	0.041
853.64	0.034
854.07	0.039
854.50	0.041
854.93	0.038
855.36	0.037
855.80	0.039
856.23	0.039
856.66	0.034
857.09	0.034
857.52	0.034
857.96	0.033
858.39	0.039
858.82	0.039
859.25	0.044
859.68	0.040
860.12	0.032
860.55	0.042
860.98	0.052
861.41	0.045
861.84	0.037
862.27	0.039
862.71	0.041
863.14	0.041
863.57	0.041
864.00	0.047
864.43	0.043
864.86	0.039
865.30	0.039
865.73	0.045
866.16	0.039
866.59	0.044
867.02	0.046
867.45	0.042
867.88	0.037
868.31	0.037
868.75	0.046
869.18	0.040
869.61	0.037
870.04	0.036
870.47	0.043
870.90	0.037
871.33	0.045
871.76	0.045
872.19	0.042
872.62	0.046
873.06	0.046
873.49	0.047
873.92	0.042
874.35	0.043
874.78	0.040
875.21	0.039
875.64	0.039
876.07	0.048
876.50	0.040
876.93	0.045
877.36	0.044
877.79	0.037
878.22	0.050
878.65	0.051
879.08	0.043
879.51	0.048
879.94	0.053
880.37	0.041
880.80	0.048
881.23	0.043
881.67	0.046
882.10	0.043
882.53	0.050
882.96	0.044
883.39	0.049
883.82	0.048
884.25	0.047
884.68	0.050
885.11	0.047
885.54	0.049
885.97	0.048
886.39	0.045
886.82	0.041
887.25	0.048
887.68	0.051
888.11	0.050
888.54	0.051
888.97	0.054
889.40	0.044
889.83	0.040
890.26	0.053
890.69	0.048
891.12	0.050
891.55	0.048
891.98	0.049
892.41	0.055
892.84	0.050
893.27	0.049
893.70	0.054
894.13	0.048
894.56	0.045
894.98	0.052
895.41	0.055
895.84	0.050
896.27	0.048
896.70	0.056
897.13	0.053
897.56	0.055
897.99	0.051
898.42	0.054
898.85	0.052
899.27	0.051
899.70	0.057
900.13	0.053
900.56	0.052
900.99	0.047
901.42	0.056
901.85	0.054
902.28	0.051
902.70	0.055
903.13	0.057
903.56	0.057
903.99	0.056
904.42	0.056
904.85	0.059
905.27	0.056
905.70	0.055
906.13	0.057
906.56	0.058
906.99	0.059
907.42	0.056
907.84	0.062
908.27	0.055
908.70	0.056
909.13	0.054
909.56	0.061
909.98	0.053
910.41	0.051
910.84	0.058
911.27	0.057
911.70	0.054
912.12	0.056
912.55	0.054
912.98	0.051
913.41	0.051
913.84	0.057
914.26	0.057
914.69	0.055
915.12	0.057
915.55	0.051
915.97	0.054
916.40	0.055
916.83	0.053
917.26	0.058
917.68	0.058
918.11	0.053
918.54	0.057
918.97	0.060
919.39	0.058
919.82	0.059
920.25	0.061
920.67	0.061
921.10	0.057
921.53	0.065
921.96	0.065
922.38	0.061
922.81	0.057
923.24	0.062
923.66	0.063
924.09	0.061
924.52	0.056
924.94	0.063
925.37	0.067
925.80	0.066
926.22	0.066
926.65	0.070
927.08	0.065
927.50	0.061
927.93	0.066
928.36	0.072
928.78	0.066
929.21	0.070
929.64	0.073
930.06	0.072
930.49	0.074
930.92	0.074
931.34	0.080
931.77	0.074
932.20	0.077
932.62	0.081
933.05	0.077
933.47	0.081
933.90	0.085
934.33	0.080
934.75	0.081
935.18	0.085
935.61	0.086
936.03	0.084
936.46	0.092
936.88	0.095
937.31	0.090
937.73	0.093
938.16	0.085
938.59	0.100
939.01	0.100
939.44	0.089
939.86	0.105
940.29	0.097
940.71	0.103
941.14	0.111
941.57	0.111
941.99	0.119
942.42	0.115
942.84	0.109
943.27	0.115
943.69	0.124
944.12	0.127
944.54	0.113
944.97	0.120
945.39	0.125
945.82	0.125
946.24	0.123
946.67	0.130
947.09	0.126
947.52	0.126
947.94	0.139
948.37	0.137
948.79	0.143
949.22	0.142
949.64	0.145
950.07	0.144
950.49	0.158
950.92	0.153
951.34	0.156
951.77	0.160
952.19	0.158
952.62	0.169
953.04	0.170
953.47	0.174
953.89	0.177
954.32	0.177
954.74	0.172
955.17	0.175
955.59	0.184
956.01	0.178
956.44	0.184
956.86	0.186
957.29	0.194
957.71	0.197
958.14	0.199
958.56	0.204
958.98	0.201
959.41	0.202
959.83	0.203
960.26	0.206
960.68	0.211
961.10	0.201
961.53	0.205
961.95	0.213
962.38	0.212
962.80	0.215
963.22	0.219
963.65	0.214
964.07	0.213
964.50	0.212
964.92	0.227
965.34	0.217
965.77	0.213
966.19	0.213
966.61	0.227
967.04	0.224
967.46	0.220
967.88	0.220
968.31	0.225
968.73	0.226
969.15	0.226
969.58	0.224
970.00	0.227
970.42	0.225
970.85	0.226
971.27	0.232
971.69	0.231
972.12	0.223
972.54	0.232
972.96	0.230
973.39	0.222
973.81	0.231
974.23	0.229
974.65	0.229
975.08	0.224
975.50	0.230
975.92	0.237
976.35	0.227
976.77	0.231
977.19	0.239
977.61	0.230
978.04	0.234
978.46	0.228
978.88	0.235
979.30	0.240
979.73	0.231
980.15	0.233
980.57	0.232
980.99	0.241
981.42	0.229
981.84	0.237
982.26	0.228
982.68	0.224
983.11	0.229
983.53	0.227
983.95	0.218
984.37	0.227
984.79	0.222
985.22	0.233
985.64	0.226
986.06	0.229
986.48	0.231
986.90	0.231
987.33	0.224
987.75	0.225
988.17	0.219
988.59	0.224
989.01	0.222
989.43	0.220
989.86	0.223
990.28	0.221
990.70	0.222
991.12	0.226
991.54	0.221
991.96	0.218
992.39	0.222
992.81	0.223
993.23	0.218
993.65	0.216
994.07	0.218
994.49	0.215
994.91	0.216
995.34	0.210
995.76	0.219
996.18	0.218
996.60	0.208
997.02	0.207
997.44	0.208
997.86	0.207
998.28	0.208
998.70	0.207
999.12	0.224
999.55	0.203
999.97	0.209
1000.39	0.216
1000.81	0.208
1001.23	0.197
1001.65	0.203
1002.07	0.200
1002.49	0.202
1002.91	0.207
1003.33	0.205
1003.75	0.197
1004.17	0.199
1004.59	0.201
1005.01	0.200
1005.43	0.201
1005.85	0.194
1006.28	0.206
1006.70	0.206
1007.12	0.196
1007.54	0.192
1007.96	0.197
1008.38	0.190
1008.80	0.180
1009.22	0.189
1009.64	0.200
1010.06	0.183
1010.48	0.189
1010.90	0.187
1011.32	0.192
1011.74	0.181
1012.16	0.183
1012.58	0.185
1013.00	0.189
1013.42	0.192
1013.84	0.184
1014.26	0.189
1014.67	0.180
1015.09	0.177
1015.51	0.189
1015.93	0.180
1016.35	0.164
1016.77	0.167
1017.19	0.171
1017.61	0.163
1018.03	0.166
1018.45	0.157
1018.87	0.176
1019.29	0.167
1019.71	0.155
1020.13	0.178
1020.55	0.163
1020.97	0.158
1021.38	0.160
1021.80	0.153
1022.22	0.151
1022.64	0.154
1023.06	0.148
1023.48	0.168
1023.90	0.156
1024.32	0.154
1024.74	0.162
1025.15	0.160
1025.57	0.142
1025.99	0.160
1026.41	0.157
1026.83	0.134
1027.25	0.151
1027.67	0.143
1028.08	0.149
1028.50	0.151
1028.92	0.142
1029.34	0.152
1029.76	0.141
1030.18	0.137
1030.60	0.139
1031.01	0.140
1031.43	0.130
1031.85	0.127
1032.27	0.127
1032.69	0.145
1033.10	0.121
1033.52	0.140
1033.94	0.148
1034.36	0.129
1034.78	0.137
1035.19	0.150
1035.61	0.126
1036.03	0.115
1036.45	0.127
1036.87	0.122
1037.28	0.120
1037.70	0.111
1038.12	0.124
1038.54	0.116
1038.95	0.116
1039.37	0.119
1039.79	0.120
1040.21	0.125
1040.62	0.099
1041.04	0.117
1041.46	0.136
1041.88	0.118
1042.29	0.110
1042.71	0.114
1043.13	0.108
1043.55	0.110
1043.96	0.137
1044.38	0.120
1044.80	0.120
1045.21	0.097
1045.63	0.107
1046.05	0.125
1046.47	0.117
1046.88	0.112
1047.30	0.110
1047.72	0.130
1048.13	0.116
1048.55	0.113
1048.97	0.110
1049.38	0.126
1049.80	0.090
1050.22	0.117
1050.63	0.115
1051.05	0.094
1051.47	0.106
1051.88	0.125
1052.30	0.121
1052.72	0.095
1053.13	0.100
1053.55	0.126
1053.97	0.130
1054.38	0.118
1054.80	0.148
1055.21	0.134
1055.63	0.112
1056.05	0.108
1056.46	0.128
1056.88	0.128
1057.29	0.105
1057.71	0.105
1058.13	0.101
1058.54	0.127
1058.96	0.113
1059.37	0.135
1059.79	0.123
1060.21	0.091
1060.62	0.140
1061.04	0.106
1061.45	0.170
1061.87	0.070
1062.28	0.121
1062.70	0.170
1063.12	0.165
1063.53	0.089
1063.95	0.117
1064.36	0.162
1064.78	0.082
1065.19	0.062
1065.61	0.139
1066.02	0.172
1066.44	0.116
1066.85	0.146
1067.27	0.138
1067.68	0.173
1068.10	0.075
1068.51	0.204
1068.93	0.145
1069.35	0.108
1069.76	0.222
1070.17	0.144
1070.59	0.160
1071.00	0.230
1071.42	0.101
1071.83	0.368
1072.25	0.102
1072.66	0.161
1073.08	0.261
1073.49	0.378
1073.91	0.012
1074.32	0.138
1074.74	0.122
1075.15	0.376
1075.57	0.197
1075.98	0.115
1076.40	0.513
1076.81	0.171
1077.22	0.148
1077.64	0.339
1078.05	0.164
1078.47	0.129
1078.88	0.363
1079.30	0.446
1079.71	0.266
1080.12	0.200
1080.54	0.320
1080.95	1.284
1081.37	0.303
1081.78	0.330
1082.19	0.829
1082.61	0.368
1083.02	0.110
1083.44	0.873
1083.85	0.554
1084.26	0.088
1084.68	0.191
1085.09	0.170
1085.50	0.562
1085.92	0.058
1086.33	0.121
1086.74	-0.000
1087.16	-0.000
1087.57	-0.031
1087.98	-0.000
1088.40	1.129
1088.81	0.154
1089.22	0.150
1089.64	0.534
1090.05	-0.000
1090.46	-0.028
1090.88	0.240
1091.29	-0.000
1091.70	-0.000
1092.12	0.572
1092.53	-0.000
1092.94	1.443
1093.36	0.310
1093.77	0.192
1094.18	-0.000
1094.59	1.678
1095.01	0.248
1095.42	0.286
1095.83	-0.000
1096.25	0.602
1096.66	-0.094
1097.07	0.576
1097.48	0.176
1097.90	0.022
1098.31	0.109
1098.72	-0.000
1099.13	0.242
>>>>>End Processed Spectral Data<<<<<
