SpectraSuite Data File
++++++++++++++++++++++++++++++++++++
Date: Mon Jul 10 14:23:47 CEST 2017
User: IPCE
Dark Spectrum Present: Yes
Reference Spectrum Present: Yes
Number of Sampled Component Spectra: 1
Spectrometers: HR+C0708
Integration Time (usec): 1000 (HR+C0708)
Spectra Averaged: 10 (HR+C0708)
Boxcar Smoothing: 0 (HR+C0708)
Correct for Electrical Dark: No (HR+C0708)
Strobe/Lamp Enabled: No (HR+C0708)
Correct for Detector Non-linearity: No (HR+C0708)
Correct for Stray Light: No (HR+C0708)
Number of Pixels in Processed Spectrum: 2048
>>>>>Begin Processed Spectral Data<<<<<
188.76	1.447
189.23	0.585
189.70	-0.000
190.17	0.578
190.64	-0.000
191.12	-0.000
191.59	-0.000
192.06	1.216
192.53	0.312
193.01	1.104
193.48	-0.000
193.95	0.669
194.42	0.494
194.90	0.978
195.37	-0.000
195.84	0.196
196.31	-0.000
196.78	-0.000
197.26	-0.000
197.73	-0.000
198.20	-0.000
198.67	-0.000
199.14	-0.000
199.62	-0.000
200.09	1.439
200.56	1.085
201.03	0.694
201.50	-0.000
201.97	0.758
202.45	0.899
202.92	0.813
203.39	1.852
203.86	0.963
204.33	0.686
204.80	0.716
205.28	1.173
205.75	0.903
206.22	0.561
206.69	1.222
207.16	0.634
207.63	0.784
208.11	0.476
208.58	0.642
209.05	0.624
209.52	0.547
209.99	1.551
210.46	1.030
210.93	0.603
211.41	0.700
211.88	0.597
212.35	0.694
212.82	0.541
213.29	0.957
213.76	-0.000
214.23	-0.000
214.70	0.497
215.18	-0.000
215.65	1.073
216.12	0.559
216.59	0.586
217.06	0.449
217.53	0.543
218.00	0.587
218.47	0.448
218.94	-0.000
219.41	0.627
219.89	0.767
220.36	0.993
220.83	0.870
221.30	0.857
221.77	0.627
222.24	0.914
222.71	1.469
223.18	0.737
223.65	0.810
224.12	1.004
224.59	1.042
225.06	0.698
225.54	0.876
226.01	1.641
226.48	1.157
226.95	-0.000
227.42	1.267
227.89	1.011
228.36	1.474
228.83	1.214
229.30	1.291
229.77	1.355
230.24	1.620
230.71	1.890
231.18	1.739
231.65	1.690
232.12	2.284
232.59	2.026
233.06	1.781
233.53	1.623
234.00	1.931
234.47	2.025
234.94	2.167
235.41	1.970
235.88	2.546
236.35	2.057
236.82	2.036
237.29	2.564
237.76	2.390
238.23	2.438
238.70	2.700
239.17	2.422
239.64	2.370
240.11	2.230
240.58	2.346
241.05	-0.000
241.52	2.340
241.99	2.205
242.46	2.781
242.93	2.799
243.40	2.856
243.87	2.868
244.34	3.299
244.81	2.543
245.28	2.701
245.75	2.541
246.22	2.811
246.69	2.570
247.16	2.752
247.63	3.278
248.10	-0.000
248.57	2.669
249.04	2.698
249.51	3.269
249.98	2.599
250.45	2.979
250.92	2.941
251.39	3.434
251.85	2.773
252.32	2.659
252.79	-0.000
253.26	2.906
253.73	2.541
254.20	2.446
254.67	2.567
255.14	2.837
255.61	2.552
256.08	2.895
256.55	2.715
257.02	2.889
257.49	2.933
257.95	3.122
258.42	2.655
258.89	2.667
259.36	2.945
259.83	2.818
260.30	2.809
260.77	2.700
261.24	2.825
261.71	2.847
262.17	2.770
262.64	2.686
263.11	2.958
263.58	3.125
264.05	2.845
264.52	2.633
264.99	2.805
265.46	2.797
265.92	2.605
266.39	2.756
266.86	2.875
267.33	3.041
267.80	2.738
268.27	2.813
268.74	2.806
269.20	2.736
269.67	2.760
270.14	2.752
270.61	2.664
271.08	2.851
271.55	2.723
272.01	2.800
272.48	2.976
272.95	2.639
273.42	2.928
273.89	2.860
274.36	2.743
274.82	2.977
275.29	3.031
275.76	2.558
276.23	2.607
276.70	2.486
277.16	2.700
277.63	2.470
278.10	2.586
278.57	2.664
279.04	2.712
279.50	2.414
279.97	2.509
280.44	2.491
280.91	2.609
281.38	2.693
281.84	2.600
282.31	2.535
282.78	2.505
283.25	2.384
283.72	2.509
284.18	2.515
284.65	2.557
285.12	2.445
285.59	2.571
286.05	2.424
286.52	2.427
286.99	2.445
287.46	2.431
287.92	2.483
288.39	2.444
288.86	2.510
289.33	2.511
289.79	2.440
290.26	2.442
290.73	2.387
291.20	2.413
291.66	2.291
292.13	2.323
292.60	2.322
293.07	2.329
293.53	2.323
294.00	2.350
294.47	2.354
294.93	2.289
295.40	2.365
295.87	2.249
296.34	2.266
296.80	2.381
297.27	2.313
297.74	2.284
298.20	2.298
298.67	2.311
299.14	2.303
299.60	2.294
300.07	2.185
300.54	2.262
301.01	2.258
301.47	2.243
301.94	2.306
302.41	2.214
302.87	2.202
303.34	2.239
303.81	2.077
304.27	2.168
304.74	2.138
305.21	2.133
305.67	2.187
306.14	2.134
306.61	2.093
307.07	2.161
307.54	2.084
308.01	2.144
308.47	2.118
308.94	2.111
309.40	2.117
309.87	2.074
310.34	2.070
310.80	2.133
311.27	2.080
311.74	2.026
312.20	2.048
312.67	2.080
313.13	2.101
313.60	2.113
314.07	2.052
314.53	2.053
315.00	2.064
315.47	2.058
315.93	2.054
316.40	2.018
316.86	2.011
317.33	2.044
317.80	2.004
318.26	2.023
318.73	2.002
319.19	2.027
319.66	1.946
320.13	2.015
320.59	1.970
321.06	1.965
321.52	1.992
321.99	1.924
322.45	1.978
322.92	1.977
323.39	1.915
323.85	1.937
324.32	1.924
324.78	1.909
325.25	1.907
325.71	1.869
326.18	1.869
326.64	1.865
327.11	1.830
327.58	1.896
328.04	1.830
328.51	1.803
328.97	1.839
329.44	1.807
329.90	1.784
330.37	1.831
330.83	1.767
331.30	1.782
331.76	1.742
332.23	1.736
332.69	1.765
333.16	1.678
333.62	1.683
334.09	1.705
334.56	1.658
335.02	1.619
335.49	1.605
335.95	1.567
336.42	1.538
336.88	1.537
337.35	1.497
337.81	1.472
338.28	1.442
338.74	1.430
339.20	1.418
339.67	1.386
340.13	1.343
340.60	1.317
341.06	1.282
341.53	1.248
341.99	1.222
342.46	1.179
342.92	1.164
343.39	1.127
343.85	1.107
344.32	1.085
344.78	1.073
345.25	1.042
345.71	1.017
346.17	0.984
346.64	0.961
347.10	0.935
347.57	0.905
348.03	0.890
348.50	0.867
348.96	0.849
349.43	0.832
349.89	0.806
350.35	0.796
350.82	0.776
351.28	0.757
351.75	0.745
352.21	0.731
352.67	0.717
353.14	0.708
353.60	0.686
354.07	0.674
354.53	0.663
355.00	0.643
355.46	0.636
355.92	0.643
356.39	0.624
356.85	0.612
357.31	0.606
357.78	0.594
358.24	0.586
358.71	0.579
359.17	0.569
359.63	0.566
360.10	0.561
360.56	0.554
361.03	0.550
361.49	0.547
361.95	0.546
362.42	0.541
362.88	0.535
363.34	0.536
363.81	0.528
364.27	0.527
364.73	0.524
365.20	0.518
365.66	0.519
366.12	0.519
366.59	0.515
367.05	0.512
367.51	0.507
367.98	0.507
368.44	0.503
368.90	0.501
369.37	0.496
369.83	0.498
370.29	0.495
370.76	0.492
371.22	0.495
371.68	0.488
372.15	0.490
372.61	0.489
373.07	0.485
373.54	0.477
374.00	0.479
374.46	0.482
374.92	0.481
375.39	0.475
375.85	0.476
376.31	0.472
376.78	0.472
377.24	0.470
377.70	0.469
378.16	0.470
378.63	0.465
379.09	0.461
379.55	0.466
380.01	0.461
380.48	0.455
380.94	0.458
381.40	0.458
381.87	0.451
382.33	0.455
382.79	0.458
383.25	0.449
383.72	0.452
384.18	0.446
384.64	0.446
385.10	0.446
385.56	0.442
386.03	0.438
386.49	0.439
386.95	0.441
387.41	0.438
387.88	0.438
388.34	0.438
388.80	0.435
389.26	0.432
389.72	0.432
390.19	0.431
390.65	0.429
391.11	0.426
391.57	0.424
392.04	0.426
392.50	0.424
392.96	0.425
393.42	0.420
393.88	0.418
394.34	0.421
394.81	0.422
395.27	0.419
395.73	0.415
396.19	0.412
396.65	0.414
397.12	0.416
397.58	0.412
398.04	0.412
398.50	0.410
398.96	0.411
399.42	0.408
399.89	0.409
400.35	0.404
400.81	0.403
401.27	0.402
401.73	0.406
402.19	0.399
402.65	0.398
403.12	0.393
403.58	0.398
404.04	0.397
404.50	0.393
404.96	0.393
405.42	0.391
405.88	0.390
406.34	0.387
406.81	0.387
407.27	0.386
407.73	0.390
408.19	0.389
408.65	0.384
409.11	0.384
409.57	0.380
410.03	0.381
410.49	0.376
410.96	0.382
411.42	0.378
411.88	0.374
412.34	0.373
412.80	0.373
413.26	0.375
413.72	0.373
414.18	0.370
414.64	0.368
415.10	0.370
415.56	0.368
416.02	0.371
416.48	0.371
416.95	0.363
417.41	0.364
417.87	0.364
418.33	0.364
418.79	0.364
419.25	0.358
419.71	0.361
420.17	0.357
420.63	0.354
421.09	0.358
421.55	0.359
422.01	0.354
422.47	0.353
422.93	0.354
423.39	0.354
423.85	0.353
424.31	0.351
424.77	0.350
425.23	0.353
425.69	0.350
426.15	0.348
426.61	0.348
427.07	0.345
427.53	0.346
427.99	0.343
428.45	0.343
428.91	0.341
429.37	0.339
429.83	0.342
430.29	0.343
430.75	0.344
431.21	0.343
431.67	0.337
432.13	0.336
432.59	0.336
433.05	0.333
433.51	0.336
433.97	0.333
434.43	0.335
434.89	0.334
435.35	0.329
435.81	0.326
436.27	0.331
436.73	0.323
437.19	0.326
437.65	0.328
438.11	0.323
438.57	0.326
439.03	0.318
439.48	0.322
439.94	0.321
440.40	0.322
440.86	0.319
441.32	0.318
441.78	0.315
442.24	0.317
442.70	0.313
443.16	0.311
443.62	0.315
444.08	0.313
444.54	0.311
444.99	0.317
445.45	0.312
445.91	0.309
446.37	0.311
446.83	0.304
447.29	0.306
447.75	0.303
448.21	0.304
448.67	0.305
449.12	0.301
449.58	0.302
450.04	0.307
450.50	0.302
450.96	0.299
451.42	0.303
451.88	0.299
452.34	0.297
452.79	0.297
453.25	0.300
453.71	0.298
454.17	0.293
454.63	0.296
455.09	0.297
455.55	0.293
456.00	0.292
456.46	0.291
456.92	0.291
457.38	0.285
457.84	0.289
458.30	0.289
458.75	0.289
459.21	0.286
459.67	0.289
460.13	0.282
460.59	0.284
461.04	0.285
461.50	0.285
461.96	0.283
462.42	0.281
462.88	0.283
463.33	0.280
463.79	0.281
464.25	0.282
464.71	0.279
465.17	0.278
465.62	0.278
466.08	0.281
466.54	0.279
467.00	0.278
467.46	0.279
467.91	0.277
468.37	0.274
468.83	0.276
469.29	0.274
469.74	0.275
470.20	0.275
470.66	0.272
471.12	0.273
471.57	0.271
472.03	0.269
472.49	0.273
472.95	0.268
473.40	0.267
473.86	0.269
474.32	0.269
474.78	0.267
475.23	0.265
475.69	0.265
476.15	0.265
476.60	0.265
477.06	0.264
477.52	0.264
477.98	0.263
478.43	0.264
478.89	0.258
479.35	0.261
479.80	0.258
480.26	0.260
480.72	0.261
481.18	0.258
481.63	0.258
482.09	0.255
482.55	0.261
483.00	0.260
483.46	0.259
483.92	0.257
484.37	0.257
484.83	0.256
485.29	0.257
485.74	0.256
486.20	0.255
486.66	0.254
487.11	0.254
487.57	0.252
488.03	0.253
488.48	0.252
488.94	0.250
489.40	0.251
489.85	0.252
490.31	0.252
490.77	0.248
491.22	0.248
491.68	0.248
492.13	0.246
492.59	0.247
493.05	0.246
493.50	0.245
493.96	0.246
494.42	0.245
494.87	0.245
495.33	0.248
495.78	0.246
496.24	0.244
496.70	0.244
497.15	0.242
497.61	0.243
498.06	0.243
498.52	0.240
498.98	0.242
499.43	0.242
499.89	0.240
500.34	0.240
500.80	0.240
501.25	0.239
501.71	0.237
502.17	0.237
502.62	0.238
503.08	0.237
503.53	0.236
503.99	0.235
504.44	0.235
504.90	0.233
505.36	0.236
505.81	0.234
506.27	0.233
506.72	0.234
507.18	0.232
507.63	0.234
508.09	0.233
508.54	0.233
509.00	0.233
509.45	0.232
509.91	0.230
510.36	0.229
510.82	0.231
511.27	0.234
511.73	0.227
512.19	0.227
512.64	0.228
513.10	0.227
513.55	0.224
514.01	0.225
514.46	0.225
514.92	0.225
515.37	0.223
515.83	0.225
516.28	0.223
516.73	0.222
517.19	0.222
517.64	0.224
518.10	0.225
518.55	0.219
519.01	0.220
519.46	0.220
519.92	0.221
520.37	0.221
520.83	0.221
521.28	0.218
521.74	0.218
522.19	0.216
522.65	0.219
523.10	0.216
523.55	0.218
524.01	0.217
524.46	0.217
524.92	0.217
525.37	0.218
525.83	0.215
526.28	0.216
526.73	0.217
527.19	0.215
527.64	0.214
528.10	0.213
528.55	0.212
529.01	0.214
529.46	0.215
529.91	0.212
530.37	0.213
530.82	0.213
531.28	0.210
531.73	0.213
532.18	0.211
532.64	0.212
533.09	0.212
533.54	0.210
534.00	0.207
534.45	0.212
534.91	0.212
535.36	0.208
535.81	0.207
536.27	0.207
536.72	0.208
537.17	0.206
537.63	0.206
538.08	0.207
538.54	0.205
538.99	0.206
539.44	0.205
539.90	0.204
540.35	0.204
540.80	0.206
541.26	0.203
541.71	0.202
542.16	0.202
542.62	0.202
543.07	0.201
543.52	0.201
543.98	0.202
544.43	0.201
544.88	0.204
545.34	0.202
545.79	0.201
546.24	0.201
546.69	0.199
547.15	0.199
547.60	0.198
548.05	0.200
548.51	0.198
548.96	0.198
549.41	0.198
549.86	0.196
550.32	0.200
550.77	0.196
551.22	0.198
551.68	0.196
552.13	0.198
552.58	0.197
553.03	0.195
553.49	0.194
553.94	0.196
554.39	0.193
554.84	0.191
555.30	0.195
555.75	0.193
556.20	0.192
556.65	0.191
557.11	0.192
557.56	0.192
558.01	0.192
558.46	0.192
558.92	0.193
559.37	0.191
559.82	0.189
560.27	0.190
560.72	0.188
561.18	0.191
561.63	0.189
562.08	0.189
562.53	0.192
562.99	0.189
563.44	0.188
563.89	0.188
564.34	0.189
564.79	0.185
565.25	0.187
565.70	0.187
566.15	0.187
566.60	0.185
567.05	0.188
567.50	0.188
567.96	0.187
568.41	0.187
568.86	0.187
569.31	0.187
569.76	0.185
570.21	0.184
570.67	0.185
571.12	0.184
571.57	0.183
572.02	0.184
572.47	0.184
572.92	0.184
573.37	0.181
573.83	0.182
574.28	0.180
574.73	0.181
575.18	0.182
575.63	0.180
576.08	0.180
576.53	0.180
576.98	0.183
577.44	0.181
577.89	0.180
578.34	0.181
578.79	0.178
579.24	0.179
579.69	0.181
580.14	0.181
580.59	0.177
581.04	0.179
581.49	0.179
581.95	0.177
582.40	0.176
582.85	0.178
583.30	0.176
583.75	0.177
584.20	0.178
584.65	0.176
585.10	0.176
585.55	0.176
586.00	0.177
586.45	0.176
586.90	0.176
587.35	0.178
587.80	0.177
588.25	0.177
588.71	0.176
589.16	0.177
589.61	0.176
590.06	0.175
590.51	0.177
590.96	0.172
591.41	0.176
591.86	0.174
592.31	0.175
592.76	0.174
593.21	0.172
593.66	0.175
594.11	0.174
594.56	0.174
595.01	0.173
595.46	0.173
595.91	0.175
596.36	0.174
596.81	0.173
597.26	0.175
597.71	0.174
598.16	0.171
598.61	0.172
599.06	0.173
599.51	0.174
599.96	0.173
600.41	0.170
600.86	0.173
601.31	0.172
601.76	0.171
602.21	0.171
602.65	0.172
603.10	0.170
603.55	0.172
604.00	0.170
604.45	0.171
604.90	0.171
605.35	0.170
605.80	0.171
606.25	0.172
606.70	0.174
607.15	0.171
607.60	0.168
608.05	0.168
608.50	0.171
608.95	0.170
609.39	0.171
609.84	0.170
610.29	0.169
610.74	0.167
611.19	0.170
611.64	0.169
612.09	0.166
612.54	0.169
612.99	0.169
613.44	0.169
613.88	0.168
614.33	0.168
614.78	0.167
615.23	0.168
615.68	0.166
616.13	0.166
616.58	0.166
617.03	0.164
617.47	0.165
617.92	0.166
618.37	0.166
618.82	0.163
619.27	0.167
619.72	0.166
620.17	0.164
620.61	0.164
621.06	0.166
621.51	0.165
621.96	0.164
622.41	0.163
622.86	0.162
623.30	0.165
623.75	0.165
624.20	0.166
624.65	0.165
625.10	0.161
625.54	0.161
625.99	0.162
626.44	0.163
626.89	0.163
627.34	0.163
627.78	0.163
628.23	0.162
628.68	0.161
629.13	0.161
629.58	0.159
630.02	0.163
630.47	0.162
630.92	0.161
631.37	0.161
631.81	0.160
632.26	0.160
632.71	0.159
633.16	0.159
633.61	0.160
634.05	0.162
634.50	0.160
634.95	0.161
635.40	0.162
635.84	0.159
636.29	0.162
636.74	0.161
637.18	0.160
637.63	0.160
638.08	0.160
638.53	0.160
638.97	0.160
639.42	0.162
639.87	0.160
640.32	0.158
640.76	0.159
641.21	0.160
641.66	0.159
642.10	0.158
642.55	0.158
643.00	0.160
643.44	0.159
643.89	0.161
644.34	0.159
644.79	0.161
645.23	0.157
645.68	0.160
646.13	0.160
646.57	0.159
647.02	0.160
647.47	0.159
647.91	0.160
648.36	0.160
648.81	0.160
649.25	0.159
649.70	0.159
650.15	0.160
650.59	0.159
651.04	0.159
651.48	0.161
651.93	0.161
652.38	0.162
652.82	0.159
653.27	0.158
653.72	0.159
654.16	0.159
654.61	0.161
655.06	0.160
655.50	0.156
655.95	0.156
656.39	0.159
656.84	0.159
657.29	0.158
657.73	0.159
658.18	0.160
658.62	0.160
659.07	0.160
659.52	0.158
659.96	0.161
660.41	0.159
660.85	0.157
661.30	0.154
661.74	0.158
662.19	0.157
662.64	0.158
663.08	0.157
663.53	0.160
663.97	0.157
664.42	0.158
664.86	0.159
665.31	0.158
665.75	0.156
666.20	0.157
666.65	0.159
667.09	0.156
667.54	0.155
667.98	0.156
668.43	0.154
668.87	0.155
669.32	0.154
669.76	0.153
670.21	0.153
670.65	0.154
671.10	0.154
671.54	0.154
671.99	0.154
672.43	0.151
672.88	0.148
673.32	0.148
673.77	0.150
674.21	0.150
674.66	0.148
675.10	0.149
675.55	0.146
675.99	0.147
676.44	0.147
676.88	0.147
677.33	0.145
677.77	0.143
678.22	0.143
678.66	0.143
679.11	0.145
679.55	0.144
679.99	0.140
680.44	0.142
680.88	0.143
681.33	0.140
681.77	0.141
682.22	0.139
682.66	0.139
683.11	0.136
683.55	0.137
683.99	0.137
684.44	0.139
684.88	0.135
685.33	0.136
685.77	0.135
686.21	0.135
686.66	0.133
687.10	0.131
687.55	0.131
687.99	0.133
688.44	0.133
688.88	0.133
689.32	0.130
689.77	0.132
690.21	0.132
690.65	0.129
691.10	0.130
691.54	0.130
691.99	0.129
692.43	0.127
692.87	0.128
693.32	0.130
693.76	0.126
694.20	0.128
694.65	0.127
695.09	0.125
695.53	0.128
695.98	0.126
696.42	0.124
696.86	0.125
697.31	0.126
697.75	0.127
698.19	0.123
698.64	0.123
699.08	0.125
699.52	0.124
699.97	0.124
700.41	0.126
700.85	0.123
701.30	0.124
701.74	0.125
702.18	0.123
702.63	0.124
703.07	0.124
703.51	0.127
703.96	0.122
704.40	0.123
704.84	0.124
705.28	0.125
705.73	0.122
706.17	0.121
706.61	0.122
707.06	0.123
707.50	0.124
707.94	0.119
708.38	0.120
708.83	0.120
709.27	0.121
709.71	0.123
710.15	0.122
710.60	0.121
711.04	0.120
711.48	0.120
711.92	0.121
712.37	0.122
712.81	0.121
713.25	0.119
713.69	0.123
714.13	0.121
714.58	0.122
715.02	0.120
715.46	0.118
715.90	0.120
716.35	0.120
716.79	0.119
717.23	0.119
717.67	0.122
718.11	0.122
718.56	0.119
719.00	0.119
719.44	0.118
719.88	0.119
720.32	0.118
720.76	0.119
721.21	0.118
721.65	0.118
722.09	0.120
722.53	0.119
722.97	0.119
723.41	0.117
723.86	0.121
724.30	0.122
724.74	0.120
725.18	0.119
725.62	0.118
726.06	0.118
726.50	0.117
726.95	0.118
727.39	0.120
727.83	0.122
728.27	0.118
728.71	0.117
729.15	0.120
729.59	0.121
730.03	0.119
730.48	0.119
730.92	0.118
731.36	0.118
731.80	0.118
732.24	0.116
732.68	0.120
733.12	0.122
733.56	0.120
734.00	0.123
734.44	0.120
734.89	0.120
735.33	0.121
735.77	0.119
736.21	0.121
736.65	0.118
737.09	0.118
737.53	0.122
737.97	0.119
738.41	0.120
738.85	0.124
739.29	0.120
739.73	0.121
740.17	0.121
740.61	0.122
741.05	0.118
741.49	0.120
741.93	0.118
742.37	0.121
742.81	0.118
743.26	0.118
743.70	0.118
744.14	0.117
744.58	0.118
745.02	0.117
745.46	0.117
745.90	0.116
746.34	0.121
746.78	0.118
747.22	0.118
747.66	0.118
748.10	0.117
748.54	0.120
748.98	0.119
749.42	0.118
749.86	0.120
750.29	0.118
750.73	0.115
751.17	0.117
751.61	0.115
752.05	0.118
752.49	0.118
752.93	0.115
753.37	0.115
753.81	0.114
754.25	0.113
754.69	0.117
755.13	0.114
755.57	0.116
756.01	0.115
756.45	0.113
756.89	0.116
757.33	0.119
757.77	0.113
758.21	0.113
758.64	0.116
759.08	0.113
759.52	0.113
759.96	0.114
760.40	0.115
760.84	0.116
761.28	0.113
761.72	0.113
762.16	0.115
762.60	0.115
763.03	0.111
763.47	0.113
763.91	0.115
764.35	0.110
764.79	0.110
765.23	0.114
765.67	0.112
766.11	0.111
766.54	0.115
766.98	0.114
767.42	0.113
767.86	0.114
768.30	0.111
768.74	0.114
769.17	0.114
769.61	0.112
770.05	0.113
770.49	0.111
770.93	0.113
771.37	0.109
771.80	0.112
772.24	0.113
772.68	0.112
773.12	0.114
773.56	0.111
774.00	0.112
774.43	0.110
774.87	0.111
775.31	0.113
775.75	0.110
776.19	0.110
776.62	0.111
777.06	0.110
777.50	0.109
777.94	0.108
778.37	0.111
778.81	0.109
779.25	0.112
779.69	0.108
780.13	0.113
780.56	0.110
781.00	0.111
781.44	0.111
781.88	0.112
782.31	0.108
782.75	0.108
783.19	0.106
783.63	0.109
784.06	0.108
784.50	0.109
784.94	0.111
785.37	0.105
785.81	0.108
786.25	0.107
786.69	0.107
787.12	0.106
787.56	0.108
788.00	0.105
788.43	0.108
788.87	0.107
789.31	0.106
789.75	0.108
790.18	0.106
790.62	0.106
791.06	0.108
791.49	0.107
791.93	0.108
792.37	0.105
792.80	0.108
793.24	0.104
793.68	0.108
794.11	0.105
794.55	0.108
794.99	0.105
795.42	0.103
795.86	0.104
796.30	0.104
796.73	0.107
797.17	0.106
797.61	0.104
798.04	0.104
798.48	0.102
798.91	0.101
799.35	0.105
799.79	0.102
800.22	0.106
800.66	0.105
801.10	0.107
801.53	0.104
801.97	0.107
802.40	0.104
802.84	0.106
803.28	0.104
803.71	0.105
804.15	0.105
804.58	0.103
805.02	0.101
805.46	0.108
805.89	0.108
806.33	0.104
806.76	0.101
807.20	0.105
807.63	0.103
808.07	0.103
808.51	0.104
808.94	0.106
809.38	0.103
809.81	0.101
810.25	0.103
810.68	0.103
811.12	0.099
811.55	0.104
811.99	0.103
812.42	0.101
812.86	0.103
813.29	0.106
813.73	0.102
814.17	0.105
814.60	0.100
815.04	0.103
815.47	0.101
815.91	0.104
816.34	0.100
816.78	0.100
817.21	0.096
817.65	0.104
818.08	0.100
818.52	0.102
818.95	0.099
819.39	0.100
819.82	0.098
820.25	0.103
820.69	0.099
821.12	0.100
821.56	0.099
821.99	0.104
822.43	0.097
822.86	0.097
823.30	0.100
823.73	0.096
824.17	0.100
824.60	0.098
825.04	0.101
825.47	0.109
825.90	0.102
826.34	0.101
826.77	0.104
827.21	0.102
827.64	0.105
828.08	0.105
828.51	0.105
828.94	0.103
829.38	0.103
829.81	0.102
830.25	0.106
830.68	0.106
831.11	0.106
831.55	0.105
831.98	0.111
832.42	0.101
832.85	0.108
833.28	0.105
833.72	0.103
834.15	0.099
834.58	0.104
835.02	0.108
835.45	0.107
835.88	0.105
836.32	0.100
836.75	0.104
837.19	0.106
837.62	0.105
838.05	0.107
838.49	0.105
838.92	0.110
839.35	0.103
839.79	0.105
840.22	0.107
840.65	0.105
841.09	0.106
841.52	0.106
841.95	0.103
842.39	0.109
842.82	0.108
843.25	0.102
843.68	0.107
844.12	0.110
844.55	0.105
844.98	0.111
845.42	0.105
845.85	0.104
846.28	0.103
846.71	0.111
847.15	0.108
847.58	0.111
848.01	0.107
848.45	0.111
848.88	0.109
849.31	0.108
849.74	0.106
850.18	0.105
850.61	0.107
851.04	0.109
851.47	0.104
851.91	0.112
852.34	0.107
852.77	0.105
853.20	0.107
853.64	0.108
854.07	0.107
854.50	0.113
854.93	0.108
855.36	0.107
855.80	0.112
856.23	0.110
856.66	0.109
857.09	0.102
857.52	0.097
857.96	0.104
858.39	0.107
858.82	0.106
859.25	0.114
859.68	0.101
860.12	0.108
860.55	0.107
860.98	0.117
861.41	0.113
861.84	0.113
862.27	0.107
862.71	0.105
863.14	0.103
863.57	0.105
864.00	0.114
864.43	0.101
864.86	0.112
865.30	0.105
865.73	0.110
866.16	0.108
866.59	0.107
867.02	0.108
867.45	0.106
867.88	0.107
868.31	0.108
868.75	0.114
869.18	0.108
869.61	0.112
870.04	0.106
870.47	0.107
870.90	0.107
871.33	0.116
871.76	0.102
872.19	0.110
872.62	0.115
873.06	0.108
873.49	0.111
873.92	0.107
874.35	0.105
874.78	0.119
875.21	0.106
875.64	0.104
876.07	0.110
876.50	0.109
876.93	0.110
877.36	0.104
877.79	0.106
878.22	0.109
878.65	0.108
879.08	0.112
879.51	0.111
879.94	0.109
880.37	0.107
880.80	0.115
881.23	0.110
881.67	0.111
882.10	0.113
882.53	0.113
882.96	0.109
883.39	0.110
883.82	0.109
884.25	0.109
884.68	0.110
885.11	0.101
885.54	0.111
885.97	0.108
886.39	0.104
886.82	0.107
887.25	0.115
887.68	0.112
888.11	0.116
888.54	0.112
888.97	0.113
889.40	0.110
889.83	0.110
890.26	0.118
890.69	0.115
891.12	0.110
891.55	0.117
891.98	0.113
892.41	0.117
892.84	0.114
893.27	0.109
893.70	0.111
894.13	0.108
894.56	0.112
894.98	0.114
895.41	0.116
895.84	0.111
896.27	0.114
896.70	0.119
897.13	0.114
897.56	0.114
897.99	0.118
898.42	0.116
898.85	0.115
899.27	0.113
899.70	0.117
900.13	0.119
900.56	0.114
900.99	0.112
901.42	0.113
901.85	0.114
902.28	0.116
902.70	0.117
903.13	0.114
903.56	0.108
903.99	0.121
904.42	0.114
904.85	0.113
905.27	0.112
905.70	0.114
906.13	0.116
906.56	0.118
906.99	0.119
907.42	0.114
907.84	0.118
908.27	0.118
908.70	0.115
909.13	0.114
909.56	0.117
909.98	0.111
910.41	0.114
910.84	0.112
911.27	0.112
911.70	0.114
912.12	0.112
912.55	0.112
912.98	0.113
913.41	0.114
913.84	0.114
914.26	0.111
914.69	0.115
915.12	0.117
915.55	0.109
915.97	0.113
916.40	0.117
916.83	0.112
917.26	0.119
917.68	0.114
918.11	0.110
918.54	0.115
918.97	0.115
919.39	0.113
919.82	0.115
920.25	0.120
920.67	0.115
921.10	0.118
921.53	0.116
921.96	0.122
922.38	0.120
922.81	0.117
923.24	0.120
923.66	0.117
924.09	0.123
924.52	0.120
924.94	0.123
925.37	0.121
925.80	0.125
926.22	0.123
926.65	0.125
927.08	0.122
927.50	0.121
927.93	0.125
928.36	0.129
928.78	0.131
929.21	0.131
929.64	0.129
930.06	0.125
930.49	0.131
930.92	0.132
931.34	0.132
931.77	0.133
932.20	0.137
932.62	0.140
933.05	0.134
933.47	0.141
933.90	0.143
934.33	0.138
934.75	0.140
935.18	0.148
935.61	0.138
936.03	0.143
936.46	0.153
936.88	0.150
937.31	0.149
937.73	0.147
938.16	0.153
938.59	0.157
939.01	0.150
939.44	0.151
939.86	0.161
940.29	0.152
940.71	0.161
941.14	0.164
941.57	0.156
941.99	0.178
942.42	0.180
942.84	0.168
943.27	0.165
943.69	0.171
944.12	0.181
944.54	0.184
944.97	0.183
945.39	0.184
945.82	0.178
946.24	0.170
946.67	0.191
947.09	0.195
947.52	0.187
947.94	0.193
948.37	0.187
948.79	0.211
949.22	0.204
949.64	0.198
950.07	0.203
950.49	0.210
950.92	0.209
951.34	0.213
951.77	0.221
952.19	0.217
952.62	0.233
953.04	0.221
953.47	0.224
953.89	0.232
954.32	0.232
954.74	0.231
955.17	0.237
955.59	0.241
956.01	0.241
956.44	0.241
956.86	0.250
957.29	0.250
957.71	0.259
958.14	0.260
958.56	0.262
958.98	0.252
959.41	0.264
959.83	0.261
960.26	0.260
960.68	0.265
961.10	0.269
961.53	0.269
961.95	0.271
962.38	0.269
962.80	0.274
963.22	0.273
963.65	0.277
964.07	0.280
964.50	0.275
964.92	0.275
965.34	0.273
965.77	0.278
966.19	0.279
966.61	0.280
967.04	0.280
967.46	0.281
967.88	0.278
968.31	0.279
968.73	0.292
969.15	0.286
969.58	0.277
970.00	0.273
970.42	0.284
970.85	0.282
971.27	0.284
971.69	0.286
972.12	0.285
972.54	0.285
972.96	0.282
973.39	0.280
973.81	0.293
974.23	0.289
974.65	0.284
975.08	0.292
975.50	0.282
975.92	0.288
976.35	0.290
976.77	0.283
977.19	0.284
977.61	0.278
978.04	0.283
978.46	0.287
978.88	0.281
979.30	0.284
979.73	0.293
980.15	0.285
980.57	0.279
980.99	0.287
981.42	0.281
981.84	0.289
982.26	0.285
982.68	0.279
983.11	0.283
983.53	0.279
983.95	0.286
984.37	0.286
984.79	0.283
985.22	0.285
985.64	0.281
986.06	0.280
986.48	0.280
986.90	0.277
987.33	0.276
987.75	0.283
988.17	0.272
988.59	0.270
989.01	0.281
989.43	0.277
989.86	0.277
990.28	0.276
990.70	0.276
991.12	0.277
991.54	0.272
991.96	0.269
992.39	0.274
992.81	0.269
993.23	0.267
993.65	0.268
994.07	0.262
994.49	0.265
994.91	0.271
995.34	0.264
995.76	0.268
996.18	0.265
996.60	0.261
997.02	0.267
997.44	0.259
997.86	0.263
998.28	0.272
998.70	0.248
999.12	0.262
999.55	0.263
999.97	0.262
1000.39	0.260
1000.81	0.258
1001.23	0.260
1001.65	0.252
1002.07	0.245
1002.49	0.256
1002.91	0.253
1003.33	0.249
1003.75	0.249
1004.17	0.259
1004.59	0.251
1005.01	0.246
1005.43	0.256
1005.85	0.239
1006.28	0.248
1006.70	0.250
1007.12	0.240
1007.54	0.249
1007.96	0.246
1008.38	0.239
1008.80	0.240
1009.22	0.232
1009.64	0.239
1010.06	0.236
1010.48	0.237
1010.90	0.230
1011.32	0.227
1011.74	0.241
1012.16	0.240
1012.58	0.226
1013.00	0.235
1013.42	0.235
1013.84	0.230
1014.26	0.236
1014.67	0.232
1015.09	0.223
1015.51	0.229
1015.93	0.224
1016.35	0.224
1016.77	0.223
1017.19	0.209
1017.61	0.209
1018.03	0.225
1018.45	0.211
1018.87	0.213
1019.29	0.218
1019.71	0.209
1020.13	0.213
1020.55	0.212
1020.97	0.215
1021.38	0.206
1021.80	0.209
1022.22	0.208
1022.64	0.217
1023.06	0.195
1023.48	0.215
1023.90	0.221
1024.32	0.205
1024.74	0.193
1025.15	0.204
1025.57	0.201
1025.99	0.194
1026.41	0.203
1026.83	0.201
1027.25	0.199
1027.67	0.195
1028.08	0.189
1028.50	0.205
1028.92	0.193
1029.34	0.199
1029.76	0.206
1030.18	0.193
1030.60	0.196
1031.01	0.174
1031.43	0.194
1031.85	0.176
1032.27	0.158
1032.69	0.177
1033.10	0.187
1033.52	0.184
1033.94	0.184
1034.36	0.171
1034.78	0.179
1035.19	0.189
1035.61	0.177
1036.03	0.175
1036.45	0.173
1036.87	0.173
1037.28	0.175
1037.70	0.171
1038.12	0.180
1038.54	0.146
1038.95	0.164
1039.37	0.174
1039.79	0.160
1040.21	0.161
1040.62	0.173
1041.04	0.174
1041.46	0.167
1041.88	0.172
1042.29	0.172
1042.71	0.142
1043.13	0.154
1043.55	0.167
1043.96	0.166
1044.38	0.180
1044.80	0.159
1045.21	0.153
1045.63	0.150
1046.05	0.159
1046.47	0.186
1046.88	0.172
1047.30	0.152
1047.72	0.153
1048.13	0.185
1048.55	0.154
1048.97	0.144
1049.38	0.164
1049.80	0.165
1050.22	0.147
1050.63	0.169
1051.05	0.141
1051.47	0.170
1051.88	0.152
1052.30	0.149
1052.72	0.159
1053.13	0.155
1053.55	0.138
1053.97	0.155
1054.38	0.197
1054.80	0.168
1055.21	0.132
1055.63	0.156
1056.05	0.176
1056.46	0.183
1056.88	0.137
1057.29	0.170
1057.71	0.167
1058.13	0.146
1058.54	0.154
1058.96	0.166
1059.37	0.197
1059.79	0.160
1060.21	0.178
1060.62	0.206
1061.04	0.123
1061.45	0.186
1061.87	0.222
1062.28	0.119
1062.70	0.175
1063.12	0.216
1063.53	0.180
1063.95	0.146
1064.36	0.163
1064.78	0.205
1065.19	0.148
1065.61	0.186
1066.02	0.259
1066.44	0.215
1066.85	0.161
1067.27	0.131
1067.68	0.190
1068.10	0.185
1068.51	0.204
1068.93	0.206
1069.35	0.195
1069.76	0.183
1070.17	0.219
1070.59	0.225
1071.00	0.214
1071.42	0.188
1071.83	0.315
1072.25	0.204
1072.66	0.310
1073.08	0.302
1073.49	0.268
1073.91	0.283
1074.32	0.221
1074.74	0.235
1075.15	0.344
1075.57	0.359
1075.98	0.204
1076.40	0.322
1076.81	0.288
1077.22	0.195
1077.64	0.299
1078.05	0.284
1078.47	0.129
1078.88	0.280
1079.30	0.346
1079.71	0.275
1080.12	0.344
1080.54	0.311
1080.95	0.845
1081.37	0.677
1081.78	0.315
1082.19	0.845
1082.61	1.146
1083.02	0.340
1083.44	0.536
1083.85	0.577
1084.26	0.525
1084.68	0.789
1085.09	0.079
1085.50	0.451
1085.92	1.252
1086.33	0.215
1086.74	0.789
1087.16	-0.000
1087.57	0.467
1087.98	1.047
1088.40	0.438
1088.81	0.710
1089.22	0.903
1089.64	0.312
1090.05	-0.000
1090.46	-0.000
1090.88	0.513
1091.29	1.129
1091.70	-0.000
1092.12	0.549
1092.53	-0.000
1092.94	0.873
1093.36	0.588
1093.77	1.799
1094.18	-0.000
1094.59	-0.000
1095.01	1.327
1095.42	0.884
1095.83	1.377
1096.25	-0.000
1096.66	0.251
1097.07	1.200
1097.48	0.147
1097.90	-0.000
1098.31	-0.000
1098.72	1.301
1099.13	0.854
>>>>>End Processed Spectral Data<<<<<
