SpectraSuite Data File
++++++++++++++++++++++++++++++++++++
Date: Mon Jul 10 13:57:47 CEST 2017
User: IPCE
Dark Spectrum Present: Yes
Reference Spectrum Present: Yes
Number of Sampled Component Spectra: 1
Spectrometers: HR+C0708
Integration Time (usec): 1000 (HR+C0708)
Spectra Averaged: 10 (HR+C0708)
Boxcar Smoothing: 0 (HR+C0708)
Correct for Electrical Dark: No (HR+C0708)
Strobe/Lamp Enabled: No (HR+C0708)
Correct for Detector Non-linearity: No (HR+C0708)
Correct for Stray Light: No (HR+C0708)
Number of Pixels in Processed Spectrum: 2048
>>>>>Begin Processed Spectral Data<<<<<
188.76	0.354
189.23	0.284
189.70	-0.000
190.17	0.262
190.64	-0.000
191.12	0.385
191.59	-0.000
192.06	0.915
192.53	-0.000
193.01	-0.000
193.48	-0.000
193.95	0.822
194.42	0.048
194.90	-0.000
195.37	-0.000
195.84	1.000
196.31	-0.000
196.78	1.236
197.26	0.537
197.73	0.383
198.20	0.401
198.67	-0.000
199.14	0.340
199.62	-0.000
200.09	0.927
200.56	0.900
201.03	0.908
201.50	-0.000
201.97	0.605
202.45	0.602
202.92	0.703
203.39	0.727
203.86	0.714
204.33	0.612
204.80	0.468
205.28	-0.000
205.75	0.831
206.22	0.569
206.69	0.716
207.16	0.578
207.63	0.636
208.11	0.513
208.58	0.501
209.05	0.643
209.52	0.770
209.99	0.827
210.46	0.665
210.93	0.405
211.41	0.485
211.88	0.561
212.35	0.531
212.82	0.842
213.29	-0.000
213.76	1.285
214.23	0.905
214.70	0.466
215.18	-0.000
215.65	0.790
216.12	0.503
216.59	0.573
217.06	0.731
217.53	0.506
218.00	0.784
218.47	0.740
218.94	0.742
219.41	0.755
219.89	0.735
220.36	0.471
220.83	0.676
221.30	0.647
221.77	0.553
222.24	0.752
222.71	0.915
223.18	0.461
223.65	0.897
224.12	0.620
224.59	1.030
225.06	1.019
225.54	0.961
226.01	1.548
226.48	1.041
226.95	1.137
227.42	1.056
227.89	0.961
228.36	1.676
228.83	1.375
229.30	1.365
229.77	1.386
230.24	1.436
230.71	1.673
231.18	1.887
231.65	1.721
232.12	1.428
232.59	1.776
233.06	1.658
233.53	1.481
234.00	1.781
234.47	1.906
234.94	1.802
235.41	1.703
235.88	1.888
236.35	1.837
236.82	2.003
237.29	2.288
237.76	2.143
238.23	2.280
238.70	2.282
239.17	2.328
239.64	2.365
240.11	2.590
240.58	2.196
241.05	2.364
241.52	2.370
241.99	2.296
242.46	2.394
242.93	3.480
243.40	2.458
243.87	2.774
244.34	2.895
244.81	2.408
245.28	2.947
245.75	2.415
246.22	2.406
246.69	2.443
247.16	2.637
247.63	2.843
248.10	2.983
248.57	2.573
249.04	2.582
249.51	2.886
249.98	2.519
250.45	2.716
250.92	2.738
251.39	2.720
251.85	2.561
252.32	2.668
252.79	2.945
253.26	2.573
253.73	2.675
254.20	2.334
254.67	2.872
255.14	2.511
255.61	2.695
256.08	2.890
256.55	2.694
257.02	2.804
257.49	2.713
257.95	2.842
258.42	2.748
258.89	2.617
259.36	2.789
259.83	3.024
260.30	2.840
260.77	2.624
261.24	2.906
261.71	2.966
262.17	2.793
262.64	2.797
263.11	2.687
263.58	3.139
264.05	2.754
264.52	2.649
264.99	3.014
265.46	2.723
265.92	2.815
266.39	2.815
266.86	3.018
267.33	2.781
267.80	2.779
268.27	2.623
268.74	2.866
269.20	2.865
269.67	2.769
270.14	2.933
270.61	2.803
271.08	2.618
271.55	2.962
272.01	3.016
272.48	2.756
272.95	2.745
273.42	2.749
273.89	2.811
274.36	2.740
274.82	2.587
275.29	2.859
275.76	2.734
276.23	2.705
276.70	2.642
277.16	2.593
277.63	2.821
278.10	2.738
278.57	2.809
279.04	2.645
279.50	2.609
279.97	2.592
280.44	2.661
280.91	2.746
281.38	2.755
281.84	2.799
282.31	2.686
282.78	2.673
283.25	2.672
283.72	2.696
284.18	2.675
284.65	2.811
285.12	2.593
285.59	3.111
286.05	2.614
286.52	2.651
286.99	2.690
287.46	2.683
287.92	2.503
288.39	2.577
288.86	2.712
289.33	2.627
289.79	2.591
290.26	2.479
290.73	2.588
291.20	2.556
291.66	2.479
292.13	2.508
292.60	2.460
293.07	2.544
293.53	2.614
294.00	2.443
294.47	2.507
294.93	2.568
295.40	2.562
295.87	2.565
296.34	2.587
296.80	2.564
297.27	2.489
297.74	2.514
298.20	2.426
298.67	2.451
299.14	2.525
299.60	2.529
300.07	2.386
300.54	2.469
301.01	2.423
301.47	2.392
301.94	2.394
302.41	2.348
302.87	2.343
303.34	2.328
303.81	2.203
304.27	2.301
304.74	2.373
305.21	2.385
305.67	2.310
306.14	2.350
306.61	2.269
307.07	2.320
307.54	2.219
308.01	2.326
308.47	2.249
308.94	2.309
309.40	2.266
309.87	2.199
310.34	2.283
310.80	2.233
311.27	2.295
311.74	2.238
312.20	2.146
312.67	2.347
313.13	2.284
313.60	2.212
314.07	2.282
314.53	2.280
315.00	2.301
315.47	2.271
315.93	2.211
316.40	2.205
316.86	2.211
317.33	2.238
317.80	2.256
318.26	2.301
318.73	2.222
319.19	2.213
319.66	2.190
320.13	2.252
320.59	2.151
321.06	2.180
321.52	2.255
321.99	2.196
322.45	2.163
322.92	2.204
323.39	2.168
323.85	2.182
324.32	2.190
324.78	2.149
325.25	2.160
325.71	2.158
326.18	2.127
326.64	2.079
327.11	2.090
327.58	2.103
328.04	2.084
328.51	2.024
328.97	2.101
329.44	2.006
329.90	2.016
330.37	2.024
330.83	1.953
331.30	2.015
331.76	2.004
332.23	1.972
332.69	1.949
333.16	1.864
333.62	1.916
334.09	1.880
334.56	1.806
335.02	1.765
335.49	1.742
335.95	1.704
336.42	1.639
336.88	1.605
337.35	1.562
337.81	1.545
338.28	1.495
338.74	1.475
339.20	1.445
339.67	1.426
340.13	1.361
340.60	1.319
341.06	1.281
341.53	1.232
341.99	1.184
342.46	1.145
342.92	1.111
343.39	1.063
343.85	1.038
344.32	1.006
344.78	0.979
345.25	0.935
345.71	0.900
346.17	0.873
346.64	0.829
347.10	0.793
347.57	0.753
348.03	0.722
348.50	0.692
348.96	0.670
349.43	0.640
349.89	0.611
350.35	0.594
350.82	0.573
351.28	0.551
351.75	0.520
352.21	0.505
352.67	0.488
353.14	0.472
353.60	0.452
354.07	0.439
354.53	0.424
355.00	0.411
355.46	0.397
355.92	0.391
356.39	0.379
356.85	0.365
357.31	0.361
357.78	0.349
358.24	0.345
358.71	0.337
359.17	0.330
359.63	0.325
360.10	0.324
360.56	0.324
361.03	0.313
361.49	0.311
361.95	0.305
362.42	0.305
362.88	0.300
363.34	0.300
363.81	0.295
364.27	0.299
364.73	0.293
365.20	0.290
365.66	0.288
366.12	0.286
366.59	0.284
367.05	0.282
367.51	0.279
367.98	0.277
368.44	0.277
368.90	0.279
369.37	0.274
369.83	0.272
370.29	0.272
370.76	0.270
371.22	0.268
371.68	0.267
372.15	0.267
372.61	0.265
373.07	0.265
373.54	0.264
374.00	0.261
374.46	0.263
374.92	0.261
375.39	0.260
375.85	0.258
376.31	0.260
376.78	0.255
377.24	0.254
377.70	0.254
378.16	0.254
378.63	0.251
379.09	0.250
379.55	0.252
380.01	0.251
380.48	0.246
380.94	0.247
381.40	0.246
381.87	0.247
382.33	0.249
382.79	0.246
383.25	0.244
383.72	0.243
384.18	0.240
384.64	0.243
385.10	0.241
385.56	0.239
386.03	0.240
386.49	0.240
386.95	0.236
387.41	0.234
387.88	0.234
388.34	0.233
388.80	0.235
389.26	0.235
389.72	0.235
390.19	0.233
390.65	0.230
391.11	0.231
391.57	0.226
392.04	0.229
392.50	0.231
392.96	0.229
393.42	0.225
393.88	0.227
394.34	0.226
394.81	0.226
395.27	0.225
395.73	0.223
396.19	0.223
396.65	0.224
397.12	0.220
397.58	0.221
398.04	0.222
398.50	0.220
398.96	0.220
399.42	0.218
399.89	0.221
400.35	0.219
400.81	0.219
401.27	0.215
401.73	0.216
402.19	0.211
402.65	0.216
403.12	0.209
403.58	0.210
404.04	0.211
404.50	0.210
404.96	0.209
405.42	0.210
405.88	0.208
406.34	0.209
406.81	0.207
407.27	0.202
407.73	0.206
408.19	0.205
408.65	0.205
409.11	0.203
409.57	0.201
410.03	0.203
410.49	0.200
410.96	0.201
411.42	0.199
411.88	0.200
412.34	0.199
412.80	0.198
413.26	0.197
413.72	0.197
414.18	0.196
414.64	0.195
415.10	0.193
415.56	0.195
416.02	0.196
416.48	0.197
416.95	0.191
417.41	0.191
417.87	0.192
418.33	0.191
418.79	0.191
419.25	0.188
419.71	0.190
420.17	0.188
420.63	0.186
421.09	0.188
421.55	0.191
422.01	0.186
422.47	0.185
422.93	0.187
423.39	0.188
423.85	0.185
424.31	0.187
424.77	0.183
425.23	0.189
425.69	0.184
426.15	0.186
426.61	0.184
427.07	0.182
427.53	0.183
427.99	0.180
428.45	0.179
428.91	0.177
429.37	0.178
429.83	0.181
430.29	0.181
430.75	0.180
431.21	0.179
431.67	0.178
432.13	0.179
432.59	0.170
433.05	0.175
433.51	0.175
433.97	0.175
434.43	0.176
434.89	0.173
435.35	0.172
435.81	0.171
436.27	0.174
436.73	0.169
437.19	0.173
437.65	0.172
438.11	0.173
438.57	0.170
439.03	0.167
439.48	0.171
439.94	0.170
440.40	0.173
440.86	0.168
441.32	0.167
441.78	0.167
442.24	0.168
442.70	0.165
443.16	0.168
443.62	0.166
444.08	0.167
444.54	0.166
444.99	0.168
445.45	0.164
445.91	0.161
446.37	0.163
446.83	0.162
447.29	0.159
447.75	0.159
448.21	0.161
448.67	0.162
449.12	0.159
449.58	0.164
450.04	0.161
450.50	0.160
450.96	0.158
451.42	0.157
451.88	0.160
452.34	0.156
452.79	0.160
453.25	0.161
453.71	0.158
454.17	0.159
454.63	0.157
455.09	0.156
455.55	0.158
456.00	0.154
456.46	0.154
456.92	0.154
457.38	0.150
457.84	0.155
458.30	0.155
458.75	0.152
459.21	0.152
459.67	0.155
460.13	0.148
460.59	0.153
461.04	0.153
461.50	0.153
461.96	0.153
462.42	0.154
462.88	0.152
463.33	0.149
463.79	0.151
464.25	0.153
464.71	0.150
465.17	0.151
465.62	0.149
466.08	0.152
466.54	0.150
467.00	0.151
467.46	0.150
467.91	0.150
468.37	0.147
468.83	0.152
469.29	0.149
469.74	0.151
470.20	0.149
470.66	0.149
471.12	0.151
471.57	0.149
472.03	0.147
472.49	0.148
472.95	0.146
473.40	0.148
473.86	0.148
474.32	0.147
474.78	0.148
475.23	0.144
475.69	0.147
476.15	0.145
476.60	0.145
477.06	0.144
477.52	0.146
477.98	0.145
478.43	0.144
478.89	0.143
479.35	0.143
479.80	0.145
480.26	0.143
480.72	0.145
481.18	0.143
481.63	0.143
482.09	0.143
482.55	0.145
483.00	0.143
483.46	0.145
483.92	0.143
484.37	0.143
484.83	0.140
485.29	0.143
485.74	0.140
486.20	0.142
486.66	0.141
487.11	0.143
487.57	0.141
488.03	0.141
488.48	0.141
488.94	0.140
489.40	0.139
489.85	0.140
490.31	0.140
490.77	0.139
491.22	0.138
491.68	0.140
492.13	0.139
492.59	0.137
493.05	0.139
493.50	0.138
493.96	0.137
494.42	0.138
494.87	0.136
495.33	0.138
495.78	0.139
496.24	0.137
496.70	0.135
497.15	0.137
497.61	0.137
498.06	0.134
498.52	0.136
498.98	0.136
499.43	0.136
499.89	0.137
500.34	0.136
500.80	0.135
501.25	0.135
501.71	0.134
502.17	0.135
502.62	0.135
503.08	0.133
503.53	0.134
503.99	0.132
504.44	0.133
504.90	0.133
505.36	0.133
505.81	0.131
506.27	0.134
506.72	0.133
507.18	0.131
507.63	0.133
508.09	0.130
508.54	0.130
509.00	0.131
509.45	0.133
509.91	0.131
510.36	0.131
510.82	0.131
511.27	0.132
511.73	0.130
512.19	0.130
512.64	0.132
513.10	0.127
513.55	0.129
514.01	0.128
514.46	0.128
514.92	0.128
515.37	0.128
515.83	0.129
516.28	0.130
516.73	0.126
517.19	0.123
517.64	0.128
518.10	0.129
518.55	0.125
519.01	0.124
519.46	0.127
519.92	0.127
520.37	0.128
520.83	0.126
521.28	0.127
521.74	0.125
522.19	0.124
522.65	0.126
523.10	0.125
523.55	0.125
524.01	0.124
524.46	0.124
524.92	0.126
525.37	0.126
525.83	0.123
526.28	0.124
526.73	0.125
527.19	0.124
527.64	0.125
528.10	0.123
528.55	0.123
529.01	0.126
529.46	0.125
529.91	0.125
530.37	0.125
530.82	0.123
531.28	0.124
531.73	0.127
532.18	0.122
532.64	0.124
533.09	0.123
533.54	0.123
534.00	0.122
534.45	0.124
534.91	0.124
535.36	0.124
535.81	0.123
536.27	0.124
536.72	0.124
537.17	0.123
537.63	0.126
538.08	0.125
538.54	0.125
538.99	0.126
539.44	0.125
539.90	0.125
540.35	0.122
540.80	0.125
541.26	0.125
541.71	0.125
542.16	0.124
542.62	0.128
543.07	0.128
543.52	0.123
543.98	0.126
544.43	0.126
544.88	0.128
545.34	0.126
545.79	0.127
546.24	0.126
546.69	0.126
547.15	0.125
547.60	0.127
548.05	0.130
548.51	0.127
548.96	0.127
549.41	0.128
549.86	0.128
550.32	0.131
550.77	0.128
551.22	0.131
551.68	0.130
552.13	0.130
552.58	0.131
553.03	0.132
553.49	0.132
553.94	0.133
554.39	0.133
554.84	0.130
555.30	0.133
555.75	0.131
556.20	0.132
556.65	0.135
557.11	0.134
557.56	0.135
558.01	0.134
558.46	0.136
558.92	0.137
559.37	0.137
559.82	0.136
560.27	0.136
560.72	0.136
561.18	0.137
561.63	0.138
562.08	0.139
562.53	0.140
562.99	0.139
563.44	0.138
563.89	0.138
564.34	0.142
564.79	0.142
565.25	0.142
565.70	0.143
566.15	0.142
566.60	0.141
567.05	0.143
567.50	0.145
567.96	0.146
568.41	0.145
568.86	0.147
569.31	0.147
569.76	0.148
570.21	0.146
570.67	0.147
571.12	0.148
571.57	0.148
572.02	0.151
572.47	0.150
572.92	0.149
573.37	0.151
573.83	0.150
574.28	0.151
574.73	0.153
575.18	0.154
575.63	0.154
576.08	0.156
576.53	0.154
576.98	0.158
577.44	0.157
577.89	0.160
578.34	0.161
578.79	0.160
579.24	0.161
579.69	0.160
580.14	0.164
580.59	0.164
581.04	0.164
581.49	0.167
581.95	0.166
582.40	0.168
582.85	0.169
583.30	0.169
583.75	0.171
584.20	0.173
584.65	0.170
585.10	0.174
585.55	0.177
586.00	0.178
586.45	0.178
586.90	0.179
587.35	0.181
587.80	0.181
588.25	0.183
588.71	0.186
589.16	0.188
589.61	0.190
590.06	0.190
590.51	0.194
590.96	0.192
591.41	0.196
591.86	0.196
592.31	0.199
592.76	0.198
593.21	0.199
593.66	0.203
594.11	0.202
594.56	0.206
595.01	0.208
595.46	0.209
595.91	0.210
596.36	0.212
596.81	0.214
597.26	0.216
597.71	0.219
598.16	0.220
598.61	0.223
599.06	0.224
599.51	0.226
599.96	0.227
600.41	0.229
600.86	0.231
601.31	0.233
601.76	0.233
602.21	0.236
602.65	0.237
603.10	0.240
603.55	0.243
604.00	0.243
604.45	0.244
604.90	0.248
605.35	0.248
605.80	0.251
606.25	0.252
606.70	0.251
607.15	0.253
607.60	0.254
608.05	0.256
608.50	0.257
608.95	0.259
609.39	0.260
609.84	0.262
610.29	0.262
610.74	0.261
611.19	0.262
611.64	0.263
612.09	0.262
612.54	0.269
612.99	0.266
613.44	0.269
613.88	0.272
614.33	0.269
614.78	0.269
615.23	0.269
615.68	0.268
616.13	0.274
616.58	0.274
617.03	0.272
617.47	0.273
617.92	0.273
618.37	0.276
618.82	0.275
619.27	0.274
619.72	0.276
620.17	0.274
620.61	0.277
621.06	0.274
621.51	0.277
621.96	0.276
622.41	0.277
622.86	0.278
623.30	0.280
623.75	0.280
624.20	0.281
624.65	0.282
625.10	0.280
625.54	0.279
625.99	0.284
626.44	0.284
626.89	0.284
627.34	0.285
627.78	0.285
628.23	0.287
628.68	0.288
629.13	0.289
629.58	0.290
630.02	0.291
630.47	0.293
630.92	0.296
631.37	0.296
631.81	0.298
632.26	0.301
632.71	0.300
633.16	0.302
633.61	0.304
634.05	0.304
634.50	0.304
634.95	0.309
635.40	0.310
635.84	0.312
636.29	0.313
636.74	0.318
637.18	0.319
637.63	0.322
638.08	0.322
638.53	0.326
638.97	0.329
639.42	0.333
639.87	0.333
640.32	0.333
640.76	0.339
641.21	0.342
641.66	0.342
642.10	0.347
642.55	0.348
643.00	0.352
643.44	0.356
643.89	0.356
644.34	0.358
644.79	0.365
645.23	0.366
645.68	0.369
646.13	0.374
646.57	0.376
647.02	0.381
647.47	0.382
647.91	0.384
648.36	0.388
648.81	0.391
649.25	0.393
649.70	0.397
650.15	0.398
650.59	0.399
651.04	0.407
651.48	0.410
651.93	0.410
652.38	0.413
652.82	0.416
653.27	0.418
653.72	0.420
654.16	0.425
654.61	0.429
655.06	0.431
655.50	0.432
655.95	0.433
656.39	0.435
656.84	0.440
657.29	0.441
657.73	0.440
658.18	0.447
658.62	0.447
659.07	0.448
659.52	0.450
659.96	0.452
660.41	0.456
660.85	0.453
661.30	0.454
661.74	0.462
662.19	0.463
662.64	0.461
663.08	0.463
663.53	0.462
663.97	0.461
664.42	0.463
664.86	0.467
665.31	0.466
665.75	0.462
666.20	0.464
666.65	0.467
667.09	0.462
667.54	0.458
667.98	0.459
668.43	0.457
668.87	0.457
669.32	0.453
669.76	0.449
670.21	0.445
670.65	0.443
671.10	0.443
671.54	0.436
671.99	0.432
672.43	0.426
672.88	0.421
673.32	0.415
673.77	0.411
674.21	0.407
674.66	0.400
675.10	0.392
675.55	0.385
675.99	0.379
676.44	0.372
676.88	0.365
677.33	0.358
677.77	0.350
678.22	0.343
678.66	0.336
679.11	0.327
679.55	0.321
679.99	0.313
680.44	0.306
680.88	0.299
681.33	0.287
681.77	0.282
682.22	0.275
682.66	0.269
683.11	0.258
683.55	0.251
683.99	0.244
684.44	0.239
684.88	0.231
685.33	0.226
685.77	0.217
686.21	0.211
686.66	0.206
687.10	0.195
687.55	0.192
687.99	0.187
688.44	0.181
688.88	0.176
689.32	0.170
689.77	0.168
690.21	0.163
690.65	0.156
691.10	0.152
691.54	0.149
691.99	0.143
692.43	0.139
692.87	0.139
693.32	0.133
693.76	0.130
694.20	0.127
694.65	0.124
695.09	0.120
695.53	0.118
695.98	0.115
696.42	0.111
696.86	0.108
697.31	0.108
697.75	0.105
698.19	0.102
698.64	0.102
699.08	0.101
699.52	0.098
699.97	0.098
700.41	0.094
700.85	0.091
701.30	0.092
701.74	0.089
702.18	0.089
702.63	0.088
703.07	0.087
703.51	0.087
703.96	0.084
704.40	0.083
704.84	0.084
705.28	0.082
705.73	0.082
706.17	0.079
706.61	0.079
707.06	0.078
707.50	0.076
707.94	0.075
708.38	0.075
708.83	0.076
709.27	0.074
709.71	0.074
710.15	0.073
710.60	0.073
711.04	0.072
711.48	0.072
711.92	0.069
712.37	0.073
712.81	0.070
713.25	0.070
713.69	0.072
714.13	0.069
714.58	0.070
715.02	0.071
715.46	0.068
715.90	0.069
716.35	0.067
716.79	0.068
717.23	0.069
717.67	0.068
718.11	0.067
718.56	0.068
719.00	0.065
719.44	0.068
719.88	0.069
720.32	0.067
720.76	0.066
721.21	0.065
721.65	0.065
722.09	0.067
722.53	0.067
722.97	0.067
723.41	0.067
723.86	0.068
724.30	0.069
724.74	0.064
725.18	0.067
725.62	0.066
726.06	0.068
726.50	0.069
726.95	0.066
727.39	0.066
727.83	0.068
728.27	0.067
728.71	0.066
729.15	0.068
729.59	0.066
730.03	0.067
730.48	0.069
730.92	0.067
731.36	0.069
731.80	0.066
732.24	0.066
732.68	0.069
733.12	0.069
733.56	0.070
734.00	0.071
734.44	0.069
734.89	0.067
735.33	0.069
735.77	0.067
736.21	0.070
736.65	0.067
737.09	0.068
737.53	0.070
737.97	0.068
738.41	0.067
738.85	0.071
739.29	0.069
739.73	0.070
740.17	0.070
740.61	0.069
741.05	0.069
741.49	0.070
741.93	0.068
742.37	0.069
742.81	0.068
743.26	0.067
743.70	0.069
744.14	0.065
744.58	0.068
745.02	0.068
745.46	0.068
745.90	0.068
746.34	0.068
746.78	0.069
747.22	0.067
747.66	0.066
748.10	0.066
748.54	0.070
748.98	0.066
749.42	0.069
749.86	0.067
750.29	0.066
750.73	0.066
751.17	0.065
751.61	0.065
752.05	0.068
752.49	0.067
752.93	0.064
753.37	0.067
753.81	0.065
754.25	0.065
754.69	0.068
755.13	0.065
755.57	0.067
756.01	0.065
756.45	0.063
756.89	0.063
757.33	0.070
757.77	0.065
758.21	0.064
758.64	0.066
759.08	0.061
759.52	0.065
759.96	0.064
760.40	0.064
760.84	0.064
761.28	0.064
761.72	0.065
762.16	0.067
762.60	0.064
763.03	0.063
763.47	0.065
763.91	0.061
764.35	0.064
764.79	0.062
765.23	0.063
765.67	0.065
766.11	0.063
766.54	0.065
766.98	0.066
767.42	0.063
767.86	0.065
768.30	0.065
768.74	0.067
769.17	0.063
769.61	0.064
770.05	0.064
770.49	0.066
770.93	0.062
771.37	0.064
771.80	0.064
772.24	0.063
772.68	0.066
773.12	0.065
773.56	0.063
774.00	0.064
774.43	0.063
774.87	0.060
775.31	0.061
775.75	0.060
776.19	0.063
776.62	0.063
777.06	0.062
777.50	0.063
777.94	0.059
778.37	0.064
778.81	0.064
779.25	0.064
779.69	0.063
780.13	0.067
780.56	0.065
781.00	0.064
781.44	0.065
781.88	0.064
782.31	0.063
782.75	0.058
783.19	0.063
783.63	0.061
784.06	0.064
784.50	0.061
784.94	0.065
785.37	0.061
785.81	0.062
786.25	0.063
786.69	0.063
787.12	0.063
787.56	0.059
788.00	0.062
788.43	0.062
788.87	0.061
789.31	0.061
789.75	0.064
790.18	0.061
790.62	0.064
791.06	0.066
791.49	0.062
791.93	0.062
792.37	0.060
792.80	0.060
793.24	0.057
793.68	0.063
794.11	0.059
794.55	0.060
794.99	0.058
795.42	0.058
795.86	0.059
796.30	0.058
796.73	0.057
797.17	0.065
797.61	0.057
798.04	0.061
798.48	0.057
798.91	0.056
799.35	0.060
799.79	0.057
800.22	0.064
800.66	0.060
801.10	0.058
801.53	0.062
801.97	0.059
802.40	0.056
802.84	0.061
803.28	0.061
803.71	0.060
804.15	0.059
804.58	0.060
805.02	0.060
805.46	0.059
805.89	0.059
806.33	0.059
806.76	0.057
807.20	0.058
807.63	0.063
808.07	0.060
808.51	0.056
808.94	0.063
809.38	0.061
809.81	0.062
810.25	0.063
810.68	0.058
811.12	0.061
811.55	0.059
811.99	0.058
812.42	0.061
812.86	0.058
813.29	0.060
813.73	0.062
814.17	0.060
814.60	0.056
815.04	0.063
815.47	0.062
815.91	0.061
816.34	0.059
816.78	0.058
817.21	0.057
817.65	0.061
818.08	0.061
818.52	0.055
818.95	0.059
819.39	0.060
819.82	0.056
820.25	0.060
820.69	0.056
821.12	0.060
821.56	0.057
821.99	0.058
822.43	0.062
822.86	0.058
823.30	0.056
823.73	0.058
824.17	0.052
824.60	0.058
825.04	0.057
825.47	0.059
825.90	0.059
826.34	0.059
826.77	0.061
827.21	0.061
827.64	0.060
828.08	0.064
828.51	0.060
828.94	0.065
829.38	0.062
829.81	0.062
830.25	0.064
830.68	0.063
831.11	0.064
831.55	0.067
831.98	0.068
832.42	0.063
832.85	0.071
833.28	0.064
833.72	0.067
834.15	0.065
834.58	0.065
835.02	0.066
835.45	0.065
835.88	0.065
836.32	0.062
836.75	0.065
837.19	0.060
837.62	0.066
838.05	0.062
838.49	0.068
838.92	0.068
839.35	0.063
839.79	0.068
840.22	0.066
840.65	0.068
841.09	0.068
841.52	0.066
841.95	0.065
842.39	0.068
842.82	0.068
843.25	0.065
843.68	0.071
844.12	0.069
844.55	0.065
844.98	0.072
845.42	0.065
845.85	0.060
846.28	0.063
846.71	0.071
847.15	0.065
847.58	0.068
848.01	0.066
848.45	0.068
848.88	0.072
849.31	0.065
849.74	0.069
850.18	0.066
850.61	0.065
851.04	0.075
851.47	0.062
851.91	0.072
852.34	0.072
852.77	0.065
853.20	0.072
853.64	0.071
854.07	0.069
854.50	0.067
854.93	0.067
855.36	0.072
855.80	0.071
856.23	0.066
856.66	0.070
857.09	0.067
857.52	0.063
857.96	0.062
858.39	0.066
858.82	0.067
859.25	0.074
859.68	0.066
860.12	0.067
860.55	0.071
860.98	0.077
861.41	0.072
861.84	0.068
862.27	0.068
862.71	0.074
863.14	0.067
863.57	0.061
864.00	0.072
864.43	0.068
864.86	0.072
865.30	0.069
865.73	0.077
866.16	0.073
866.59	0.071
867.02	0.072
867.45	0.072
867.88	0.075
868.31	0.065
868.75	0.073
869.18	0.069
869.61	0.069
870.04	0.077
870.47	0.066
870.90	0.071
871.33	0.079
871.76	0.074
872.19	0.068
872.62	0.079
873.06	0.068
873.49	0.074
873.92	0.071
874.35	0.072
874.78	0.078
875.21	0.067
875.64	0.069
876.07	0.075
876.50	0.069
876.93	0.068
877.36	0.072
877.79	0.064
878.22	0.073
878.65	0.074
879.08	0.071
879.51	0.081
879.94	0.073
880.37	0.073
880.80	0.072
881.23	0.075
881.67	0.072
882.10	0.075
882.53	0.071
882.96	0.075
883.39	0.077
883.82	0.080
884.25	0.078
884.68	0.079
885.11	0.076
885.54	0.076
885.97	0.070
886.39	0.071
886.82	0.074
887.25	0.072
887.68	0.077
888.11	0.082
888.54	0.081
888.97	0.075
889.40	0.071
889.83	0.074
890.26	0.086
890.69	0.075
891.12	0.073
891.55	0.078
891.98	0.080
892.41	0.076
892.84	0.075
893.27	0.073
893.70	0.078
894.13	0.077
894.56	0.071
894.98	0.081
895.41	0.076
895.84	0.078
896.27	0.078
896.70	0.079
897.13	0.080
897.56	0.079
897.99	0.080
898.42	0.083
898.85	0.078
899.27	0.080
899.70	0.083
900.13	0.077
900.56	0.082
900.99	0.081
901.42	0.077
901.85	0.079
902.28	0.083
902.70	0.082
903.13	0.081
903.56	0.082
903.99	0.083
904.42	0.081
904.85	0.082
905.27	0.082
905.70	0.086
906.13	0.079
906.56	0.084
906.99	0.084
907.42	0.083
907.84	0.089
908.27	0.081
908.70	0.080
909.13	0.081
909.56	0.082
909.98	0.081
910.41	0.078
910.84	0.083
911.27	0.081
911.70	0.076
912.12	0.077
912.55	0.080
912.98	0.079
913.41	0.078
913.84	0.083
914.26	0.078
914.69	0.079
915.12	0.087
915.55	0.079
915.97	0.082
916.40	0.087
916.83	0.079
917.26	0.086
917.68	0.081
918.11	0.080
918.54	0.084
918.97	0.082
919.39	0.086
919.82	0.084
920.25	0.082
920.67	0.090
921.10	0.084
921.53	0.084
921.96	0.092
922.38	0.090
922.81	0.084
923.24	0.082
923.66	0.086
924.09	0.087
924.52	0.086
924.94	0.089
925.37	0.090
925.80	0.092
926.22	0.087
926.65	0.091
927.08	0.093
927.50	0.087
927.93	0.091
928.36	0.095
928.78	0.092
929.21	0.097
929.64	0.095
930.06	0.095
930.49	0.097
930.92	0.103
931.34	0.103
931.77	0.101
932.20	0.102
932.62	0.107
933.05	0.102
933.47	0.109
933.90	0.110
934.33	0.103
934.75	0.110
935.18	0.115
935.61	0.103
936.03	0.110
936.46	0.114
936.88	0.116
937.31	0.117
937.73	0.117
938.16	0.117
938.59	0.125
939.01	0.122
939.44	0.124
939.86	0.133
940.29	0.124
940.71	0.138
941.14	0.138
941.57	0.125
941.99	0.142
942.42	0.138
942.84	0.129
943.27	0.150
943.69	0.141
944.12	0.152
944.54	0.155
944.97	0.142
945.39	0.154
945.82	0.159
946.24	0.152
946.67	0.156
947.09	0.154
947.52	0.157
947.94	0.165
948.37	0.156
948.79	0.171
949.22	0.174
949.64	0.168
950.07	0.171
950.49	0.177
950.92	0.179
951.34	0.184
951.77	0.189
952.19	0.183
952.62	0.194
953.04	0.190
953.47	0.198
953.89	0.206
954.32	0.198
954.74	0.198
955.17	0.207
955.59	0.207
956.01	0.220
956.44	0.216
956.86	0.212
957.29	0.223
957.71	0.230
958.14	0.227
958.56	0.226
958.98	0.221
959.41	0.224
959.83	0.225
960.26	0.228
960.68	0.232
961.10	0.236
961.53	0.232
961.95	0.246
962.38	0.240
962.80	0.241
963.22	0.245
963.65	0.238
964.07	0.241
964.50	0.250
964.92	0.244
965.34	0.247
965.77	0.245
966.19	0.236
966.61	0.247
967.04	0.249
967.46	0.249
967.88	0.247
968.31	0.259
968.73	0.252
969.15	0.255
969.58	0.247
970.00	0.252
970.42	0.256
970.85	0.248
971.27	0.250
971.69	0.252
972.12	0.251
972.54	0.253
972.96	0.254
973.39	0.248
973.81	0.255
974.23	0.257
974.65	0.255
975.08	0.264
975.50	0.249
975.92	0.260
976.35	0.256
976.77	0.251
977.19	0.257
977.61	0.255
978.04	0.257
978.46	0.258
978.88	0.254
979.30	0.260
979.73	0.258
980.15	0.257
980.57	0.259
980.99	0.263
981.42	0.246
981.84	0.261
982.26	0.250
982.68	0.250
983.11	0.252
983.53	0.242
983.95	0.253
984.37	0.259
984.79	0.253
985.22	0.257
985.64	0.248
986.06	0.246
986.48	0.257
986.90	0.246
987.33	0.245
987.75	0.248
988.17	0.241
988.59	0.246
989.01	0.248
989.43	0.245
989.86	0.247
990.28	0.246
990.70	0.245
991.12	0.248
991.54	0.248
991.96	0.243
992.39	0.245
992.81	0.244
993.23	0.240
993.65	0.244
994.07	0.234
994.49	0.241
994.91	0.243
995.34	0.234
995.76	0.239
996.18	0.230
996.60	0.225
997.02	0.232
997.44	0.227
997.86	0.230
998.28	0.242
998.70	0.221
999.12	0.231
999.55	0.240
999.97	0.226
1000.39	0.228
1000.81	0.230
1001.23	0.230
1001.65	0.227
1002.07	0.226
1002.49	0.231
1002.91	0.225
1003.33	0.230
1003.75	0.218
1004.17	0.235
1004.59	0.219
1005.01	0.224
1005.43	0.221
1005.85	0.206
1006.28	0.218
1006.70	0.224
1007.12	0.210
1007.54	0.224
1007.96	0.213
1008.38	0.209
1008.80	0.220
1009.22	0.205
1009.64	0.219
1010.06	0.211
1010.48	0.217
1010.90	0.209
1011.32	0.207
1011.74	0.208
1012.16	0.205
1012.58	0.197
1013.00	0.197
1013.42	0.206
1013.84	0.202
1014.26	0.198
1014.67	0.207
1015.09	0.197
1015.51	0.200
1015.93	0.193
1016.35	0.199
1016.77	0.204
1017.19	0.180
1017.61	0.188
1018.03	0.194
1018.45	0.173
1018.87	0.178
1019.29	0.195
1019.71	0.182
1020.13	0.199
1020.55	0.183
1020.97	0.188
1021.38	0.190
1021.80	0.175
1022.22	0.182
1022.64	0.182
1023.06	0.172
1023.48	0.176
1023.90	0.185
1024.32	0.172
1024.74	0.176
1025.15	0.167
1025.57	0.169
1025.99	0.182
1026.41	0.171
1026.83	0.161
1027.25	0.176
1027.67	0.158
1028.08	0.158
1028.50	0.186
1028.92	0.171
1029.34	0.170
1029.76	0.170
1030.18	0.165
1030.60	0.171
1031.01	0.149
1031.43	0.161
1031.85	0.150
1032.27	0.150
1032.69	0.145
1033.10	0.163
1033.52	0.158
1033.94	0.156
1034.36	0.149
1034.78	0.149
1035.19	0.165
1035.61	0.143
1036.03	0.140
1036.45	0.161
1036.87	0.139
1037.28	0.149
1037.70	0.165
1038.12	0.149
1038.54	0.140
1038.95	0.144
1039.37	0.145
1039.79	0.132
1040.21	0.135
1040.62	0.142
1041.04	0.150
1041.46	0.130
1041.88	0.139
1042.29	0.139
1042.71	0.125
1043.13	0.142
1043.55	0.133
1043.96	0.158
1044.38	0.144
1044.80	0.147
1045.21	0.126
1045.63	0.132
1046.05	0.127
1046.47	0.137
1046.88	0.138
1047.30	0.112
1047.72	0.127
1048.13	0.144
1048.55	0.134
1048.97	0.131
1049.38	0.115
1049.80	0.116
1050.22	0.141
1050.63	0.127
1051.05	0.108
1051.47	0.144
1051.88	0.114
1052.30	0.093
1052.72	0.146
1053.13	0.128
1053.55	0.124
1053.97	0.131
1054.38	0.152
1054.80	0.166
1055.21	0.119
1055.63	0.121
1056.05	0.157
1056.46	0.138
1056.88	0.130
1057.29	0.137
1057.71	0.115
1058.13	0.112
1058.54	0.137
1058.96	0.144
1059.37	0.133
1059.79	0.104
1060.21	0.187
1060.62	0.187
1061.04	0.116
1061.45	0.143
1061.87	0.157
1062.28	0.098
1062.70	0.149
1063.12	0.147
1063.53	0.145
1063.95	0.148
1064.36	0.139
1064.78	0.170
1065.19	0.145
1065.61	0.104
1066.02	0.192
1066.44	0.207
1066.85	0.159
1067.27	0.197
1067.68	0.192
1068.10	0.147
1068.51	0.261
1068.93	0.186
1069.35	0.219
1069.76	0.221
1070.17	0.178
1070.59	0.125
1071.00	0.392
1071.42	0.051
1071.83	0.213
1072.25	0.200
1072.66	0.242
1073.08	0.229
1073.49	0.231
1073.91	0.224
1074.32	0.286
1074.74	0.081
1075.15	0.206
1075.57	0.376
1075.98	0.157
1076.40	0.281
1076.81	0.366
1077.22	0.137
1077.64	0.228
1078.05	0.035
1078.47	0.299
1078.88	0.287
1079.30	0.329
1079.71	0.299
1080.12	0.455
1080.54	0.351
1080.95	0.483
1081.37	0.657
1081.78	0.212
1082.19	0.504
1082.61	0.359
1083.02	0.756
1083.44	1.326
1083.85	0.209
1084.26	0.286
1084.68	0.557
1085.09	0.194
1085.50	0.752
1085.92	-0.000
1086.33	0.275
1086.74	0.651
1087.16	0.241
1087.57	-0.000
1087.98	-0.000
1088.40	0.251
1088.81	0.656
1089.22	-0.000
1089.64	-0.135
1090.05	0.511
1090.46	-0.000
1090.88	0.174
1091.29	1.568
1091.70	-0.000
1092.12	0.729
1092.53	1.653
1092.94	0.665
1093.36	0.153
1093.77	1.059
1094.18	-0.039
1094.59	1.041
1095.01	-0.000
1095.42	0.138
1095.83	-0.000
1096.25	-0.000
1096.66	0.512
1097.07	0.460
1097.48	0.361
1097.90	-0.000
1098.31	-0.000
1098.72	-0.000
1099.13	0.399
>>>>>End Processed Spectral Data<<<<<
