SpectraSuite Data File
++++++++++++++++++++++++++++++++++++
Date: Mon Jul 10 13:47:47 CEST 2017
User: IPCE
Dark Spectrum Present: Yes
Reference Spectrum Present: Yes
Number of Sampled Component Spectra: 1
Spectrometers: HR+C0708
Integration Time (usec): 1000 (HR+C0708)
Spectra Averaged: 10 (HR+C0708)
Boxcar Smoothing: 0 (HR+C0708)
Correct for Electrical Dark: No (HR+C0708)
Strobe/Lamp Enabled: No (HR+C0708)
Correct for Detector Non-linearity: No (HR+C0708)
Correct for Stray Light: No (HR+C0708)
Number of Pixels in Processed Spectrum: 2048
>>>>>Begin Processed Spectral Data<<<<<
188.76	0.533
189.23	0.656
189.70	-0.000
190.17	0.288
190.64	-0.000
191.12	-0.000
191.59	-0.000
192.06	-0.000
192.53	0.430
193.01	-0.000
193.48	-0.000
193.95	0.569
194.42	0.335
194.90	0.978
195.37	0.980
195.84	-0.000
196.31	-0.000
196.78	0.355
197.26	-0.000
197.73	-0.000
198.20	-0.000
198.67	-0.000
199.14	0.630
199.62	-0.000
200.09	-0.000
200.56	0.513
201.03	1.060
201.50	0.635
201.97	0.545
202.45	-0.000
202.92	0.509
203.39	0.691
203.86	0.921
204.33	0.774
204.80	0.763
205.28	-0.000
205.75	0.649
206.22	0.862
206.69	1.097
207.16	0.350
207.63	0.508
208.11	0.397
208.58	0.343
209.05	0.620
209.52	0.461
209.99	0.811
210.46	0.584
210.93	0.447
211.41	0.600
211.88	0.684
212.35	0.366
212.82	0.565
213.29	0.483
213.76	0.574
214.23	1.043
214.70	0.493
215.18	1.424
215.65	1.311
216.12	0.650
216.59	0.655
217.06	0.731
217.53	0.591
218.00	0.679
218.47	0.594
218.94	0.680
219.41	0.472
219.89	0.469
220.36	0.658
220.83	0.645
221.30	0.559
221.77	0.623
222.24	0.724
222.71	0.747
223.18	0.806
223.65	0.712
224.12	0.785
224.59	0.738
225.06	0.818
225.54	1.106
226.01	1.733
226.48	0.969
226.95	1.804
227.42	1.491
227.89	0.872
228.36	1.579
228.83	1.107
229.30	1.169
229.77	1.440
230.24	1.928
230.71	1.413
231.18	1.877
231.65	1.463
232.12	1.597
232.59	1.765
233.06	1.529
233.53	1.692
234.00	1.854
234.47	1.724
234.94	2.018
235.41	1.733
235.88	1.838
236.35	2.157
236.82	2.077
237.29	2.975
237.76	2.397
238.23	2.226
238.70	2.630
239.17	2.109
239.64	2.197
240.11	2.318
240.58	2.321
241.05	2.264
241.52	2.294
241.99	2.148
242.46	2.390
242.93	3.635
243.40	2.369
243.87	2.635
244.34	3.114
244.81	2.375
245.28	2.757
245.75	2.475
246.22	2.513
246.69	2.658
247.16	2.532
247.63	2.639
248.10	2.902
248.57	2.467
249.04	2.489
249.51	3.069
249.98	2.477
250.45	3.116
250.92	2.995
251.39	2.528
251.85	2.627
252.32	2.527
252.79	2.810
253.26	2.730
253.73	2.412
254.20	2.419
254.67	2.520
255.14	2.626
255.61	2.634
256.08	2.643
256.55	2.555
257.02	2.644
257.49	2.901
257.95	2.656
258.42	2.709
258.89	2.690
259.36	2.771
259.83	2.792
260.30	2.646
260.77	2.705
261.24	2.844
261.71	2.748
262.17	3.112
262.64	2.821
263.11	2.872
263.58	4.447
264.05	2.879
264.52	2.678
264.99	2.862
265.46	2.723
265.92	2.839
266.39	2.832
266.86	2.704
267.33	3.108
267.80	2.719
268.27	2.621
268.74	3.015
269.20	2.698
269.67	2.745
270.14	2.956
270.61	2.650
271.08	2.719
271.55	3.062
272.01	2.879
272.48	2.844
272.95	2.660
273.42	2.756
273.89	2.764
274.36	2.676
274.82	2.788
275.29	2.988
275.76	2.641
276.23	2.662
276.70	2.540
277.16	2.806
277.63	2.829
278.10	2.799
278.57	2.908
279.04	2.780
279.50	2.463
279.97	2.723
280.44	2.773
280.91	2.678
281.38	2.780
281.84	2.851
282.31	2.728
282.78	2.737
283.25	2.639
283.72	2.730
284.18	3.094
284.65	2.905
285.12	2.544
285.59	2.891
286.05	2.715
286.52	2.686
286.99	2.662
287.46	2.712
287.92	2.617
288.39	2.568
288.86	2.669
289.33	2.650
289.79	2.744
290.26	2.516
290.73	2.632
291.20	2.488
291.66	2.563
292.13	2.573
292.60	2.436
293.07	2.756
293.53	2.618
294.00	2.495
294.47	2.731
294.93	2.507
295.40	2.651
295.87	2.587
296.34	2.587
296.80	2.706
297.27	2.641
297.74	2.437
298.20	2.598
298.67	2.484
299.14	2.618
299.60	2.588
300.07	2.408
300.54	2.497
301.01	2.564
301.47	2.480
301.94	2.492
302.41	2.571
302.87	2.362
303.34	2.465
303.81	2.278
304.27	2.379
304.74	2.421
305.21	2.343
305.67	2.359
306.14	2.400
306.61	2.324
307.07	2.454
307.54	2.301
308.01	2.293
308.47	2.472
308.94	2.475
309.40	2.359
309.87	2.361
310.34	2.306
310.80	2.324
311.27	2.355
311.74	2.291
312.20	2.356
312.67	2.398
313.13	2.411
313.60	2.392
314.07	2.360
314.53	2.379
315.00	2.425
315.47	2.299
315.93	2.350
316.40	2.407
316.86	2.318
317.33	2.388
317.80	2.434
318.26	2.394
318.73	2.419
319.19	2.383
319.66	2.262
320.13	2.413
320.59	2.246
321.06	2.289
321.52	2.364
321.99	2.244
322.45	2.245
322.92	2.330
323.39	2.286
323.85	2.275
324.32	2.325
324.78	2.265
325.25	2.301
325.71	2.167
326.18	2.110
326.64	2.149
327.11	2.115
327.58	2.107
328.04	2.076
328.51	2.045
328.97	2.069
329.44	2.057
329.90	1.943
330.37	2.044
330.83	1.984
331.30	1.951
331.76	1.949
332.23	1.895
332.69	1.909
333.16	1.848
333.62	1.826
334.09	1.813
334.56	1.715
335.02	1.642
335.49	1.638
335.95	1.583
336.42	1.522
336.88	1.476
337.35	1.440
337.81	1.389
338.28	1.341
338.74	1.298
339.20	1.269
339.67	1.235
340.13	1.166
340.60	1.133
341.06	1.076
341.53	1.020
341.99	0.983
342.46	0.938
342.92	0.906
343.39	0.870
343.85	0.831
344.32	0.801
344.78	0.774
345.25	0.737
345.71	0.709
346.17	0.676
346.64	0.638
347.10	0.608
347.57	0.572
348.03	0.547
348.50	0.522
348.96	0.497
349.43	0.474
349.89	0.455
350.35	0.435
350.82	0.417
351.28	0.400
351.75	0.382
352.21	0.370
352.67	0.350
353.14	0.338
353.60	0.328
354.07	0.318
354.53	0.300
355.00	0.297
355.46	0.282
355.92	0.280
356.39	0.270
356.85	0.263
357.31	0.259
357.78	0.250
358.24	0.247
358.71	0.242
359.17	0.235
359.63	0.233
360.10	0.232
360.56	0.227
361.03	0.224
361.49	0.219
361.95	0.220
362.42	0.215
362.88	0.212
363.34	0.216
363.81	0.211
364.27	0.212
364.73	0.206
365.20	0.206
365.66	0.205
366.12	0.203
366.59	0.201
367.05	0.201
367.51	0.203
367.98	0.199
368.44	0.197
368.90	0.198
369.37	0.198
369.83	0.191
370.29	0.194
370.76	0.190
371.22	0.193
371.68	0.189
372.15	0.189
372.61	0.189
373.07	0.190
373.54	0.183
374.00	0.186
374.46	0.185
374.92	0.183
375.39	0.182
375.85	0.183
376.31	0.182
376.78	0.181
377.24	0.179
377.70	0.178
378.16	0.179
378.63	0.180
379.09	0.178
379.55	0.177
380.01	0.178
380.48	0.172
380.94	0.176
381.40	0.172
381.87	0.174
382.33	0.175
382.79	0.174
383.25	0.169
383.72	0.174
384.18	0.170
384.64	0.171
385.10	0.169
385.56	0.169
386.03	0.165
386.49	0.167
386.95	0.167
387.41	0.167
387.88	0.166
388.34	0.167
388.80	0.165
389.26	0.163
389.72	0.165
390.19	0.165
390.65	0.164
391.11	0.165
391.57	0.160
392.04	0.163
392.50	0.161
392.96	0.161
393.42	0.159
393.88	0.161
394.34	0.161
394.81	0.161
395.27	0.160
395.73	0.157
396.19	0.158
396.65	0.160
397.12	0.156
397.58	0.157
398.04	0.156
398.50	0.155
398.96	0.157
399.42	0.153
399.89	0.158
400.35	0.154
400.81	0.151
401.27	0.152
401.73	0.152
402.19	0.150
402.65	0.148
403.12	0.149
403.58	0.148
404.04	0.147
404.50	0.146
404.96	0.146
405.42	0.146
405.88	0.144
406.34	0.143
406.81	0.143
407.27	0.140
407.73	0.143
408.19	0.140
408.65	0.144
409.11	0.141
409.57	0.141
410.03	0.139
410.49	0.139
410.96	0.138
411.42	0.137
411.88	0.134
412.34	0.137
412.80	0.136
413.26	0.136
413.72	0.137
414.18	0.133
414.64	0.134
415.10	0.135
415.56	0.133
416.02	0.133
416.48	0.138
416.95	0.130
417.41	0.131
417.87	0.132
418.33	0.130
418.79	0.132
419.25	0.129
419.71	0.130
420.17	0.132
420.63	0.127
421.09	0.130
421.55	0.131
422.01	0.129
422.47	0.128
422.93	0.127
423.39	0.128
423.85	0.129
424.31	0.131
424.77	0.127
425.23	0.129
425.69	0.127
426.15	0.125
426.61	0.125
427.07	0.127
427.53	0.126
427.99	0.125
428.45	0.123
428.91	0.124
429.37	0.123
429.83	0.126
430.29	0.126
430.75	0.126
431.21	0.122
431.67	0.122
432.13	0.122
432.59	0.119
433.05	0.122
433.51	0.120
433.97	0.121
434.43	0.122
434.89	0.121
435.35	0.119
435.81	0.115
436.27	0.119
436.73	0.115
437.19	0.118
437.65	0.120
438.11	0.119
438.57	0.118
439.03	0.117
439.48	0.119
439.94	0.117
440.40	0.119
440.86	0.116
441.32	0.113
441.78	0.116
442.24	0.114
442.70	0.114
443.16	0.117
443.62	0.113
444.08	0.116
444.54	0.114
444.99	0.115
445.45	0.114
445.91	0.111
446.37	0.113
446.83	0.112
447.29	0.110
447.75	0.112
448.21	0.113
448.67	0.113
449.12	0.109
449.58	0.111
450.04	0.113
450.50	0.112
450.96	0.109
451.42	0.109
451.88	0.113
452.34	0.110
452.79	0.109
453.25	0.112
453.71	0.110
454.17	0.108
454.63	0.109
455.09	0.109
455.55	0.108
456.00	0.106
456.46	0.107
456.92	0.107
457.38	0.104
457.84	0.108
458.30	0.106
458.75	0.109
459.21	0.107
459.67	0.111
460.13	0.106
460.59	0.109
461.04	0.110
461.50	0.111
461.96	0.108
462.42	0.108
462.88	0.109
463.33	0.106
463.79	0.109
464.25	0.107
464.71	0.107
465.17	0.106
465.62	0.107
466.08	0.108
466.54	0.106
467.00	0.109
467.46	0.108
467.91	0.106
468.37	0.106
468.83	0.107
469.29	0.108
469.74	0.108
470.20	0.105
470.66	0.107
471.12	0.107
471.57	0.106
472.03	0.105
472.49	0.105
472.95	0.105
473.40	0.102
473.86	0.105
474.32	0.106
474.78	0.105
475.23	0.103
475.69	0.106
476.15	0.106
476.60	0.105
477.06	0.106
477.52	0.104
477.98	0.107
478.43	0.107
478.89	0.105
479.35	0.105
479.80	0.108
480.26	0.107
480.72	0.108
481.18	0.103
481.63	0.105
482.09	0.103
482.55	0.107
483.00	0.106
483.46	0.103
483.92	0.103
484.37	0.105
484.83	0.102
485.29	0.105
485.74	0.104
486.20	0.106
486.66	0.104
487.11	0.103
487.57	0.102
488.03	0.103
488.48	0.104
488.94	0.104
489.40	0.106
489.85	0.105
490.31	0.104
490.77	0.103
491.22	0.103
491.68	0.104
492.13	0.104
492.59	0.102
493.05	0.104
493.50	0.103
493.96	0.102
494.42	0.102
494.87	0.103
495.33	0.104
495.78	0.105
496.24	0.103
496.70	0.101
497.15	0.104
497.61	0.102
498.06	0.103
498.52	0.102
498.98	0.103
499.43	0.104
499.89	0.101
500.34	0.101
500.80	0.102
501.25	0.103
501.71	0.102
502.17	0.102
502.62	0.102
503.08	0.100
503.53	0.101
503.99	0.099
504.44	0.100
504.90	0.099
505.36	0.098
505.81	0.099
506.27	0.101
506.72	0.101
507.18	0.102
507.63	0.099
508.09	0.099
508.54	0.098
509.00	0.098
509.45	0.100
509.91	0.099
510.36	0.097
510.82	0.098
511.27	0.100
511.73	0.099
512.19	0.098
512.64	0.099
513.10	0.098
513.55	0.095
514.01	0.098
514.46	0.098
514.92	0.097
515.37	0.095
515.83	0.099
516.28	0.097
516.73	0.096
517.19	0.095
517.64	0.099
518.10	0.095
518.55	0.094
519.01	0.095
519.46	0.096
519.92	0.095
520.37	0.096
520.83	0.097
521.28	0.096
521.74	0.096
522.19	0.095
522.65	0.095
523.10	0.093
523.55	0.097
524.01	0.095
524.46	0.097
524.92	0.096
525.37	0.097
525.83	0.095
526.28	0.094
526.73	0.095
527.19	0.097
527.64	0.095
528.10	0.095
528.55	0.093
529.01	0.097
529.46	0.096
529.91	0.097
530.37	0.097
530.82	0.095
531.28	0.096
531.73	0.097
532.18	0.099
532.64	0.096
533.09	0.096
533.54	0.098
534.00	0.094
534.45	0.096
534.91	0.097
535.36	0.098
535.81	0.095
536.27	0.097
536.72	0.097
537.17	0.099
537.63	0.100
538.08	0.100
538.54	0.100
538.99	0.100
539.44	0.099
539.90	0.099
540.35	0.099
540.80	0.101
541.26	0.099
541.71	0.099
542.16	0.103
542.62	0.104
543.07	0.102
543.52	0.100
543.98	0.102
544.43	0.103
544.88	0.106
545.34	0.105
545.79	0.102
546.24	0.103
546.69	0.105
547.15	0.105
547.60	0.105
548.05	0.109
548.51	0.106
548.96	0.106
549.41	0.109
549.86	0.109
550.32	0.112
550.77	0.111
551.22	0.111
551.68	0.110
552.13	0.111
552.58	0.111
553.03	0.112
553.49	0.114
553.94	0.116
554.39	0.116
554.84	0.114
555.30	0.116
555.75	0.114
556.20	0.115
556.65	0.118
557.11	0.117
557.56	0.120
558.01	0.119
558.46	0.120
558.92	0.125
559.37	0.122
559.82	0.123
560.27	0.121
560.72	0.124
561.18	0.128
561.63	0.126
562.08	0.127
562.53	0.127
562.99	0.129
563.44	0.129
563.89	0.129
564.34	0.132
564.79	0.132
565.25	0.130
565.70	0.135
566.15	0.135
566.60	0.133
567.05	0.138
567.50	0.138
567.96	0.139
568.41	0.139
568.86	0.139
569.31	0.141
569.76	0.141
570.21	0.142
570.67	0.142
571.12	0.145
571.57	0.144
572.02	0.147
572.47	0.145
572.92	0.148
573.37	0.149
573.83	0.148
574.28	0.150
574.73	0.151
575.18	0.154
575.63	0.154
576.08	0.156
576.53	0.155
576.98	0.159
577.44	0.158
577.89	0.161
578.34	0.162
578.79	0.164
579.24	0.164
579.69	0.168
580.14	0.169
580.59	0.168
581.04	0.171
581.49	0.171
581.95	0.171
582.40	0.177
582.85	0.179
583.30	0.180
583.75	0.179
584.20	0.185
584.65	0.185
585.10	0.184
585.55	0.190
586.00	0.191
586.45	0.193
586.90	0.195
587.35	0.196
587.80	0.200
588.25	0.200
588.71	0.202
589.16	0.206
589.61	0.210
590.06	0.211
590.51	0.215
590.96	0.215
591.41	0.215
591.86	0.220
592.31	0.224
592.76	0.224
593.21	0.227
593.66	0.231
594.11	0.232
594.56	0.236
595.01	0.239
595.46	0.239
595.91	0.243
596.36	0.246
596.81	0.248
597.26	0.252
597.71	0.253
598.16	0.257
598.61	0.261
599.06	0.262
599.51	0.264
599.96	0.268
600.41	0.271
600.86	0.275
601.31	0.275
601.76	0.277
602.21	0.281
602.65	0.283
603.10	0.287
603.55	0.289
604.00	0.291
604.45	0.292
604.90	0.298
605.35	0.300
605.80	0.302
606.25	0.306
606.70	0.309
607.15	0.311
607.60	0.309
608.05	0.313
608.50	0.315
608.95	0.315
609.39	0.319
609.84	0.322
610.29	0.322
610.74	0.326
611.19	0.328
611.64	0.327
612.09	0.327
612.54	0.329
612.99	0.330
613.44	0.332
613.88	0.335
614.33	0.336
614.78	0.334
615.23	0.337
615.68	0.339
616.13	0.338
616.58	0.341
617.03	0.337
617.47	0.341
617.92	0.341
618.37	0.344
618.82	0.343
619.27	0.343
619.72	0.345
620.17	0.343
620.61	0.345
621.06	0.346
621.51	0.346
621.96	0.347
622.41	0.347
622.86	0.348
623.30	0.352
623.75	0.350
624.20	0.353
624.65	0.353
625.10	0.352
625.54	0.352
625.99	0.355
626.44	0.358
626.89	0.358
627.34	0.358
627.78	0.361
628.23	0.364
628.68	0.362
629.13	0.364
629.58	0.364
630.02	0.368
630.47	0.369
630.92	0.370
631.37	0.373
631.81	0.375
632.26	0.377
632.71	0.380
633.16	0.384
633.61	0.385
634.05	0.387
634.50	0.390
634.95	0.391
635.40	0.396
635.84	0.397
636.29	0.402
636.74	0.407
637.18	0.410
637.63	0.411
638.08	0.418
638.53	0.419
638.97	0.421
639.42	0.428
639.87	0.429
640.32	0.434
640.76	0.438
641.21	0.443
641.66	0.445
642.10	0.449
642.55	0.451
643.00	0.461
643.44	0.463
643.89	0.466
644.34	0.471
644.79	0.476
645.23	0.481
645.68	0.486
646.13	0.493
646.57	0.497
647.02	0.502
647.47	0.505
647.91	0.509
648.36	0.514
648.81	0.519
649.25	0.524
649.70	0.528
650.15	0.533
650.59	0.536
651.04	0.540
651.48	0.550
651.93	0.552
652.38	0.553
652.82	0.560
653.27	0.564
653.72	0.568
654.16	0.574
654.61	0.575
655.06	0.580
655.50	0.582
655.95	0.589
656.39	0.592
656.84	0.596
657.29	0.596
657.73	0.603
658.18	0.607
658.62	0.609
659.07	0.612
659.52	0.613
659.96	0.621
660.41	0.620
660.85	0.622
661.30	0.623
661.74	0.631
662.19	0.633
662.64	0.630
663.08	0.634
663.53	0.635
663.97	0.638
664.42	0.636
664.86	0.637
665.31	0.638
665.75	0.638
666.20	0.640
666.65	0.640
667.09	0.634
667.54	0.631
667.98	0.631
668.43	0.628
668.87	0.627
669.32	0.623
669.76	0.617
670.21	0.617
670.65	0.609
671.10	0.604
671.54	0.605
671.99	0.595
672.43	0.586
672.88	0.579
673.32	0.573
673.77	0.565
674.21	0.554
674.66	0.546
675.10	0.540
675.55	0.525
675.99	0.516
676.44	0.506
676.88	0.498
677.33	0.485
677.77	0.471
678.22	0.462
678.66	0.449
679.11	0.439
679.55	0.423
679.99	0.416
680.44	0.404
680.88	0.391
681.33	0.379
681.77	0.370
682.22	0.358
682.66	0.348
683.11	0.334
683.55	0.323
683.99	0.311
684.44	0.304
684.88	0.293
685.33	0.284
685.77	0.274
686.21	0.265
686.66	0.254
687.10	0.241
687.55	0.236
687.99	0.228
688.44	0.220
688.88	0.213
689.32	0.203
689.77	0.199
690.21	0.193
690.65	0.180
691.10	0.176
691.54	0.172
691.99	0.163
692.43	0.158
692.87	0.152
693.32	0.148
693.76	0.140
694.20	0.139
694.65	0.134
695.09	0.130
695.53	0.125
695.98	0.120
696.42	0.117
696.86	0.112
697.31	0.111
697.75	0.108
698.19	0.102
698.64	0.103
699.08	0.099
699.52	0.095
699.97	0.093
700.41	0.091
700.85	0.086
701.30	0.086
701.74	0.083
702.18	0.083
702.63	0.079
703.07	0.078
703.51	0.077
703.96	0.074
704.40	0.073
704.84	0.071
705.28	0.070
705.73	0.071
706.17	0.066
706.61	0.065
707.06	0.066
707.50	0.063
707.94	0.062
708.38	0.059
708.83	0.058
709.27	0.062
709.71	0.059
710.15	0.059
710.60	0.057
711.04	0.058
711.48	0.057
711.92	0.053
712.37	0.056
712.81	0.055
713.25	0.055
713.69	0.053
714.13	0.055
714.58	0.054
715.02	0.054
715.46	0.052
715.90	0.053
716.35	0.050
716.79	0.052
717.23	0.050
717.67	0.050
718.11	0.054
718.56	0.051
719.00	0.050
719.44	0.051
719.88	0.051
720.32	0.049
720.76	0.049
721.21	0.047
721.65	0.048
722.09	0.052
722.53	0.048
722.97	0.049
723.41	0.050
723.86	0.052
724.30	0.050
724.74	0.048
725.18	0.047
725.62	0.047
726.06	0.049
726.50	0.050
726.95	0.048
727.39	0.047
727.83	0.051
728.27	0.046
728.71	0.048
729.15	0.049
729.59	0.049
730.03	0.049
730.48	0.050
730.92	0.049
731.36	0.049
731.80	0.050
732.24	0.048
732.68	0.051
733.12	0.053
733.56	0.049
734.00	0.051
734.44	0.050
734.89	0.050
735.33	0.054
735.77	0.049
736.21	0.049
736.65	0.052
737.09	0.051
737.53	0.050
737.97	0.050
738.41	0.049
738.85	0.051
739.29	0.049
739.73	0.051
740.17	0.050
740.61	0.050
741.05	0.051
741.49	0.050
741.93	0.048
742.37	0.053
742.81	0.049
743.26	0.050
743.70	0.050
744.14	0.048
744.58	0.050
745.02	0.050
745.46	0.049
745.90	0.048
746.34	0.051
746.78	0.051
747.22	0.049
747.66	0.049
748.10	0.050
748.54	0.051
748.98	0.048
749.42	0.051
749.86	0.051
750.29	0.049
750.73	0.047
751.17	0.049
751.61	0.050
752.05	0.049
752.49	0.050
752.93	0.046
753.37	0.050
753.81	0.051
754.25	0.049
754.69	0.050
755.13	0.047
755.57	0.050
756.01	0.048
756.45	0.046
756.89	0.047
757.33	0.052
757.77	0.047
758.21	0.048
758.64	0.049
759.08	0.045
759.52	0.047
759.96	0.047
760.40	0.047
760.84	0.048
761.28	0.045
761.72	0.047
762.16	0.048
762.60	0.048
763.03	0.045
763.47	0.049
763.91	0.047
764.35	0.047
764.79	0.047
765.23	0.048
765.67	0.047
766.11	0.045
766.54	0.049
766.98	0.049
767.42	0.046
767.86	0.047
768.30	0.047
768.74	0.047
769.17	0.046
769.61	0.047
770.05	0.050
770.49	0.048
770.93	0.046
771.37	0.049
771.80	0.044
772.24	0.046
772.68	0.048
773.12	0.049
773.56	0.046
774.00	0.050
774.43	0.047
774.87	0.045
775.31	0.047
775.75	0.045
776.19	0.045
776.62	0.048
777.06	0.047
777.50	0.047
777.94	0.044
778.37	0.046
778.81	0.047
779.25	0.045
779.69	0.045
780.13	0.049
780.56	0.048
781.00	0.048
781.44	0.049
781.88	0.047
782.31	0.048
782.75	0.045
783.19	0.046
783.63	0.045
784.06	0.045
784.50	0.044
784.94	0.049
785.37	0.043
785.81	0.046
786.25	0.045
786.69	0.043
787.12	0.047
787.56	0.045
788.00	0.046
788.43	0.049
788.87	0.045
789.31	0.046
789.75	0.046
790.18	0.044
790.62	0.047
791.06	0.046
791.49	0.044
791.93	0.047
792.37	0.047
792.80	0.044
793.24	0.040
793.68	0.044
794.11	0.044
794.55	0.043
794.99	0.043
795.42	0.045
795.86	0.043
796.30	0.041
796.73	0.044
797.17	0.050
797.61	0.041
798.04	0.046
798.48	0.043
798.91	0.044
799.35	0.048
799.79	0.040
800.22	0.049
800.66	0.045
801.10	0.042
801.53	0.048
801.97	0.044
802.40	0.041
802.84	0.047
803.28	0.046
803.71	0.045
804.15	0.046
804.58	0.044
805.02	0.042
805.46	0.047
805.89	0.045
806.33	0.042
806.76	0.043
807.20	0.045
807.63	0.050
808.07	0.044
808.51	0.044
808.94	0.045
809.38	0.043
809.81	0.044
810.25	0.044
810.68	0.042
811.12	0.046
811.55	0.046
811.99	0.045
812.42	0.046
812.86	0.047
813.29	0.044
813.73	0.042
814.17	0.047
814.60	0.044
815.04	0.048
815.47	0.043
815.91	0.048
816.34	0.043
816.78	0.040
817.21	0.041
817.65	0.043
818.08	0.045
818.52	0.043
818.95	0.041
819.39	0.044
819.82	0.043
820.25	0.045
820.69	0.045
821.12	0.045
821.56	0.039
821.99	0.040
822.43	0.043
822.86	0.043
823.30	0.044
823.73	0.039
824.17	0.043
824.60	0.045
825.04	0.040
825.47	0.047
825.90	0.042
826.34	0.044
826.77	0.049
827.21	0.047
827.64	0.045
828.08	0.047
828.51	0.049
828.94	0.047
829.38	0.044
829.81	0.048
830.25	0.049
830.68	0.050
831.11	0.047
831.55	0.050
831.98	0.049
832.42	0.050
832.85	0.058
833.28	0.051
833.72	0.050
834.15	0.049
834.58	0.048
835.02	0.054
835.45	0.053
835.88	0.048
836.32	0.047
836.75	0.052
837.19	0.050
837.62	0.050
838.05	0.048
838.49	0.049
838.92	0.057
839.35	0.051
839.79	0.057
840.22	0.054
840.65	0.049
841.09	0.051
841.52	0.054
841.95	0.054
842.39	0.051
842.82	0.053
843.25	0.052
843.68	0.055
844.12	0.055
844.55	0.049
844.98	0.057
845.42	0.047
845.85	0.046
846.28	0.055
846.71	0.051
847.15	0.054
847.58	0.055
848.01	0.054
848.45	0.055
848.88	0.057
849.31	0.053
849.74	0.054
850.18	0.049
850.61	0.052
851.04	0.062
851.47	0.050
851.91	0.059
852.34	0.054
852.77	0.046
853.20	0.056
853.64	0.057
854.07	0.054
854.50	0.058
854.93	0.052
855.36	0.056
855.80	0.058
856.23	0.054
856.66	0.055
857.09	0.053
857.52	0.049
857.96	0.050
858.39	0.053
858.82	0.056
859.25	0.059
859.68	0.051
860.12	0.055
860.55	0.063
860.98	0.063
861.41	0.057
861.84	0.054
862.27	0.054
862.71	0.055
863.14	0.053
863.57	0.055
864.00	0.060
864.43	0.054
864.86	0.060
865.30	0.055
865.73	0.057
866.16	0.056
866.59	0.054
867.02	0.060
867.45	0.057
867.88	0.056
868.31	0.053
868.75	0.062
869.18	0.054
869.61	0.055
870.04	0.057
870.47	0.056
870.90	0.057
871.33	0.068
871.76	0.059
872.19	0.058
872.62	0.064
873.06	0.056
873.49	0.056
873.92	0.056
874.35	0.062
874.78	0.061
875.21	0.050
875.64	0.061
876.07	0.059
876.50	0.054
876.93	0.059
877.36	0.055
877.79	0.052
878.22	0.063
878.65	0.055
879.08	0.061
879.51	0.061
879.94	0.057
880.37	0.066
880.80	0.067
881.23	0.056
881.67	0.059
882.10	0.065
882.53	0.060
882.96	0.063
883.39	0.059
883.82	0.066
884.25	0.063
884.68	0.062
885.11	0.060
885.54	0.061
885.97	0.060
886.39	0.061
886.82	0.067
887.25	0.061
887.68	0.064
888.11	0.063
888.54	0.065
888.97	0.066
889.40	0.060
889.83	0.061
890.26	0.071
890.69	0.062
891.12	0.067
891.55	0.064
891.98	0.057
892.41	0.067
892.84	0.060
893.27	0.060
893.70	0.066
894.13	0.064
894.56	0.061
894.98	0.068
895.41	0.065
895.84	0.071
896.27	0.065
896.70	0.066
897.13	0.070
897.56	0.068
897.99	0.067
898.42	0.067
898.85	0.069
899.27	0.067
899.70	0.065
900.13	0.068
900.56	0.068
900.99	0.068
901.42	0.069
901.85	0.066
902.28	0.068
902.70	0.068
903.13	0.071
903.56	0.068
903.99	0.073
904.42	0.067
904.85	0.070
905.27	0.070
905.70	0.071
906.13	0.071
906.56	0.071
906.99	0.073
907.42	0.069
907.84	0.077
908.27	0.074
908.70	0.069
909.13	0.070
909.56	0.067
909.98	0.072
910.41	0.068
910.84	0.068
911.27	0.072
911.70	0.067
912.12	0.070
912.55	0.070
912.98	0.063
913.41	0.071
913.84	0.067
914.26	0.065
914.69	0.071
915.12	0.069
915.55	0.064
915.97	0.072
916.40	0.074
916.83	0.066
917.26	0.071
917.68	0.068
918.11	0.070
918.54	0.072
918.97	0.071
919.39	0.070
919.82	0.070
920.25	0.073
920.67	0.073
921.10	0.074
921.53	0.072
921.96	0.077
922.38	0.078
922.81	0.073
923.24	0.074
923.66	0.076
924.09	0.078
924.52	0.075
924.94	0.074
925.37	0.077
925.80	0.079
926.22	0.075
926.65	0.080
927.08	0.079
927.50	0.079
927.93	0.081
928.36	0.080
928.78	0.083
929.21	0.086
929.64	0.082
930.06	0.083
930.49	0.086
930.92	0.088
931.34	0.090
931.77	0.087
932.20	0.088
932.62	0.092
933.05	0.092
933.47	0.098
933.90	0.093
934.33	0.097
934.75	0.096
935.18	0.103
935.61	0.098
936.03	0.102
936.46	0.105
936.88	0.103
937.31	0.106
937.73	0.102
938.16	0.108
938.59	0.114
939.01	0.104
939.44	0.106
939.86	0.122
940.29	0.114
940.71	0.127
941.14	0.119
941.57	0.126
941.99	0.136
942.42	0.126
942.84	0.125
943.27	0.135
943.69	0.126
944.12	0.138
944.54	0.132
944.97	0.124
945.39	0.144
945.82	0.138
946.24	0.141
946.67	0.146
947.09	0.147
947.52	0.147
947.94	0.148
948.37	0.149
948.79	0.162
949.22	0.161
949.64	0.152
950.07	0.173
950.49	0.168
950.92	0.168
951.34	0.177
951.77	0.169
952.19	0.178
952.62	0.188
953.04	0.178
953.47	0.184
953.89	0.193
954.32	0.185
954.74	0.192
955.17	0.192
955.59	0.197
956.01	0.204
956.44	0.201
956.86	0.203
957.29	0.217
957.71	0.214
958.14	0.213
958.56	0.215
958.98	0.212
959.41	0.219
959.83	0.217
960.26	0.214
960.68	0.226
961.10	0.223
961.53	0.228
961.95	0.235
962.38	0.225
962.80	0.227
963.22	0.229
963.65	0.232
964.07	0.227
964.50	0.233
964.92	0.235
965.34	0.236
965.77	0.234
966.19	0.229
966.61	0.238
967.04	0.239
967.46	0.234
967.88	0.229
968.31	0.234
968.73	0.243
969.15	0.243
969.58	0.238
970.00	0.239
970.42	0.238
970.85	0.244
971.27	0.248
971.69	0.236
972.12	0.245
972.54	0.242
972.96	0.238
973.39	0.242
973.81	0.251
974.23	0.242
974.65	0.247
975.08	0.247
975.50	0.239
975.92	0.254
976.35	0.248
976.77	0.247
977.19	0.243
977.61	0.238
978.04	0.248
978.46	0.253
978.88	0.235
979.30	0.251
979.73	0.253
980.15	0.245
980.57	0.245
980.99	0.246
981.42	0.237
981.84	0.249
982.26	0.243
982.68	0.243
983.11	0.247
983.53	0.236
983.95	0.247
984.37	0.243
984.79	0.236
985.22	0.247
985.64	0.239
986.06	0.245
986.48	0.245
986.90	0.231
987.33	0.236
987.75	0.230
988.17	0.231
988.59	0.245
989.01	0.234
989.43	0.228
989.86	0.240
990.28	0.235
990.70	0.236
991.12	0.245
991.54	0.229
991.96	0.226
992.39	0.227
992.81	0.227
993.23	0.232
993.65	0.228
994.07	0.229
994.49	0.234
994.91	0.228
995.34	0.225
995.76	0.231
996.18	0.224
996.60	0.221
997.02	0.226
997.44	0.218
997.86	0.217
998.28	0.226
998.70	0.216
999.12	0.228
999.55	0.219
999.97	0.220
1000.39	0.224
1000.81	0.217
1001.23	0.222
1001.65	0.222
1002.07	0.206
1002.49	0.217
1002.91	0.215
1003.33	0.211
1003.75	0.214
1004.17	0.212
1004.59	0.204
1005.01	0.206
1005.43	0.211
1005.85	0.201
1006.28	0.217
1006.70	0.206
1007.12	0.208
1007.54	0.207
1007.96	0.201
1008.38	0.209
1008.80	0.201
1009.22	0.204
1009.64	0.207
1010.06	0.196
1010.48	0.192
1010.90	0.205
1011.32	0.191
1011.74	0.197
1012.16	0.192
1012.58	0.189
1013.00	0.197
1013.42	0.200
1013.84	0.195
1014.26	0.200
1014.67	0.185
1015.09	0.198
1015.51	0.188
1015.93	0.189
1016.35	0.195
1016.77	0.191
1017.19	0.177
1017.61	0.178
1018.03	0.182
1018.45	0.168
1018.87	0.180
1019.29	0.191
1019.71	0.172
1020.13	0.192
1020.55	0.182
1020.97	0.182
1021.38	0.173
1021.80	0.173
1022.22	0.168
1022.64	0.167
1023.06	0.151
1023.48	0.179
1023.90	0.174
1024.32	0.164
1024.74	0.174
1025.15	0.161
1025.57	0.147
1025.99	0.156
1026.41	0.152
1026.83	0.163
1027.25	0.169
1027.67	0.155
1028.08	0.170
1028.50	0.165
1028.92	0.157
1029.34	0.172
1029.76	0.143
1030.18	0.164
1030.60	0.143
1031.01	0.141
1031.43	0.161
1031.85	0.153
1032.27	0.130
1032.69	0.163
1033.10	0.156
1033.52	0.165
1033.94	0.158
1034.36	0.151
1034.78	0.150
1035.19	0.155
1035.61	0.127
1036.03	0.128
1036.45	0.134
1036.87	0.121
1037.28	0.141
1037.70	0.143
1038.12	0.141
1038.54	0.130
1038.95	0.131
1039.37	0.146
1039.79	0.140
1040.21	0.120
1040.62	0.126
1041.04	0.125
1041.46	0.129
1041.88	0.146
1042.29	0.132
1042.71	0.117
1043.13	0.130
1043.55	0.120
1043.96	0.139
1044.38	0.140
1044.80	0.113
1045.21	0.120
1045.63	0.138
1046.05	0.122
1046.47	0.137
1046.88	0.134
1047.30	0.121
1047.72	0.132
1048.13	0.122
1048.55	0.101
1048.97	0.124
1049.38	0.103
1049.80	0.106
1050.22	0.129
1050.63	0.126
1051.05	0.110
1051.47	0.128
1051.88	0.122
1052.30	0.146
1052.72	0.116
1053.13	0.084
1053.55	0.116
1053.97	0.132
1054.38	0.140
1054.80	0.131
1055.21	0.084
1055.63	0.124
1056.05	0.144
1056.46	0.149
1056.88	0.148
1057.29	0.118
1057.71	0.094
1058.13	0.125
1058.54	0.117
1058.96	0.136
1059.37	0.173
1059.79	0.140
1060.21	0.151
1060.62	0.154
1061.04	0.123
1061.45	0.179
1061.87	0.172
1062.28	0.093
1062.70	0.161
1063.12	0.117
1063.53	0.134
1063.95	0.165
1064.36	0.127
1064.78	0.126
1065.19	0.083
1065.61	0.102
1066.02	0.235
1066.44	0.095
1066.85	0.126
1067.27	0.194
1067.68	0.148
1068.10	0.114
1068.51	0.192
1068.93	0.119
1069.35	0.131
1069.76	0.190
1070.17	0.111
1070.59	0.306
1071.00	0.297
1071.42	0.073
1071.83	0.317
1072.25	0.175
1072.66	0.225
1073.08	0.224
1073.49	0.141
1073.91	0.201
1074.32	0.173
1074.74	0.067
1075.15	0.320
1075.57	0.137
1075.98	0.232
1076.40	0.643
1076.81	0.116
1077.22	0.197
1077.64	0.371
1078.05	0.251
1078.47	0.212
1078.88	0.363
1079.30	0.313
1079.71	0.586
1080.12	0.255
1080.54	0.227
1080.95	1.250
1081.37	0.488
1081.78	0.122
1082.19	-0.000
1082.61	0.301
1083.02	0.584
1083.44	-0.000
1083.85	0.040
1084.26	0.421
1084.68	0.858
1085.09	0.044
1085.50	-0.000
1085.92	-0.000
1086.33	0.215
1086.74	0.502
1087.16	0.255
1087.57	0.872
1087.98	-0.000
1088.40	0.828
1088.81	0.656
1089.22	1.556
1089.64	0.039
1090.05	-0.000
1090.46	-0.000
1090.88	0.066
1091.29	-0.000
1091.70	0.391
1092.12	0.889
1092.53	-0.000
1092.94	0.379
1093.36	0.364
1093.77	-0.000
1094.18	0.216
1094.59	-0.000
1095.01	1.327
1095.42	0.216
1095.83	-0.000
1096.25	-0.000
1096.66	0.316
1097.07	0.514
1097.48	0.104
1097.90	0.691
1098.31	-0.000
1098.72	1.038
1099.13	0.512
>>>>>End Processed Spectral Data<<<<<
