SpectraSuite Data File
++++++++++++++++++++++++++++++++++++
Date: Mon Jul 10 14:04:47 CEST 2017
User: IPCE
Dark Spectrum Present: Yes
Reference Spectrum Present: Yes
Number of Sampled Component Spectra: 1
Spectrometers: HR+C0708
Integration Time (usec): 1000 (HR+C0708)
Spectra Averaged: 10 (HR+C0708)
Boxcar Smoothing: 0 (HR+C0708)
Correct for Electrical Dark: No (HR+C0708)
Strobe/Lamp Enabled: No (HR+C0708)
Correct for Detector Non-linearity: No (HR+C0708)
Correct for Stray Light: No (HR+C0708)
Number of Pixels in Processed Spectrum: 2048
>>>>>Begin Processed Spectral Data<<<<<
188.76	0.249
189.23	1.041
189.70	-0.000
190.17	0.539
190.64	-0.000
191.12	-0.000
191.59	0.963
192.06	-0.000
192.53	-0.000
193.01	1.405
193.48	0.944
193.95	0.758
194.42	-0.000
194.90	0.346
195.37	-0.000
195.84	-0.000
196.31	-0.000
196.78	-0.000
197.26	0.105
197.73	-0.000
198.20	0.488
198.67	0.081
199.14	-0.000
199.62	-0.000
200.09	1.064
200.56	0.814
201.03	1.510
201.50	-0.000
201.97	0.483
202.45	1.053
202.92	1.030
203.39	0.792
203.86	0.680
204.33	0.826
204.80	0.632
205.28	0.717
205.75	1.002
206.22	1.003
206.69	0.624
207.16	0.437
207.63	0.898
208.11	0.805
208.58	0.395
209.05	0.624
209.52	0.678
209.99	0.700
210.46	0.701
210.93	0.935
211.41	0.878
211.88	0.654
212.35	0.447
212.82	0.858
213.29	0.593
213.76	0.714
214.23	0.875
214.70	0.717
215.18	1.185
215.65	0.840
216.12	0.741
216.59	0.675
217.06	0.675
217.53	0.798
218.00	1.169
218.47	0.709
218.94	0.637
219.41	0.656
219.89	0.724
220.36	0.593
220.83	0.418
221.30	0.673
221.77	0.683
222.24	0.774
222.71	0.813
223.18	0.900
223.65	0.752
224.12	0.740
224.59	0.885
225.06	1.377
225.54	0.880
226.01	1.372
226.48	1.201
226.95	2.734
227.42	1.287
227.89	1.132
228.36	-0.000
228.83	1.159
229.30	1.069
229.77	1.451
230.24	1.605
230.71	1.583
231.18	1.659
231.65	1.878
232.12	1.677
232.59	1.916
233.06	1.904
233.53	1.718
234.00	1.729
234.47	1.794
234.94	2.384
235.41	1.920
235.88	1.875
236.35	1.933
236.82	2.136
237.29	2.422
237.76	2.412
238.23	2.255
238.70	2.542
239.17	2.171
239.64	2.462
240.11	2.969
240.58	2.468
241.05	2.462
241.52	2.416
241.99	2.477
242.46	2.480
242.93	2.756
243.40	2.648
243.87	2.630
244.34	2.985
244.81	2.483
245.28	3.394
245.75	2.424
246.22	2.324
246.69	2.586
247.16	2.852
247.63	2.905
248.10	2.613
248.57	2.838
249.04	2.618
249.51	2.857
249.98	2.648
250.45	3.104
250.92	3.113
251.39	2.678
251.85	2.596
252.32	2.915
252.79	2.769
253.26	2.477
253.73	2.994
254.20	2.474
254.67	2.621
255.14	2.732
255.61	3.007
256.08	2.775
256.55	2.761
257.02	2.905
257.49	2.917
257.95	2.957
258.42	2.650
258.89	2.832
259.36	2.882
259.83	2.594
260.30	2.820
260.77	2.907
261.24	2.864
261.71	2.608
262.17	2.814
262.64	2.793
263.11	2.797
263.58	3.461
264.05	2.817
264.52	2.659
264.99	2.885
265.46	2.763
265.92	2.822
266.39	2.861
266.86	2.932
267.33	2.983
267.80	2.782
268.27	2.855
268.74	2.919
269.20	2.838
269.67	2.753
270.14	2.740
270.61	2.763
271.08	2.863
271.55	2.869
272.01	2.888
272.48	2.809
272.95	2.896
273.42	2.714
273.89	2.718
274.36	3.031
274.82	2.740
275.29	2.777
275.76	2.636
276.23	2.699
276.70	2.817
277.16	2.882
277.63	2.669
278.10	2.705
278.57	2.739
279.04	2.754
279.50	2.609
279.97	2.472
280.44	2.577
280.91	2.693
281.38	2.737
281.84	2.860
282.31	2.638
282.78	2.794
283.25	2.574
283.72	2.617
284.18	2.855
284.65	3.062
285.12	2.502
285.59	2.711
286.05	2.718
286.52	2.646
286.99	2.698
287.46	2.568
287.92	2.708
288.39	2.538
288.86	2.572
289.33	2.641
289.79	2.709
290.26	2.581
290.73	2.555
291.20	2.621
291.66	2.467
292.13	2.447
292.60	2.460
293.07	2.511
293.53	2.522
294.00	2.368
294.47	2.503
294.93	2.528
295.40	2.517
295.87	2.449
296.34	2.550
296.80	2.568
297.27	2.417
297.74	2.414
298.20	2.479
298.67	2.437
299.14	2.409
299.60	2.420
300.07	2.363
300.54	2.320
301.01	2.399
301.47	2.392
301.94	2.352
302.41	2.380
302.87	2.391
303.34	2.306
303.81	2.199
304.27	2.215
304.74	2.314
305.21	2.241
305.67	2.272
306.14	2.306
306.61	2.317
307.07	2.279
307.54	2.173
308.01	2.234
308.47	2.238
308.94	2.334
309.40	2.170
309.87	2.186
310.34	2.148
310.80	2.218
311.27	2.222
311.74	2.183
312.20	2.156
312.67	2.262
313.13	2.213
313.60	2.172
314.07	2.197
314.53	2.123
315.00	2.159
315.47	2.152
315.93	2.141
316.40	2.183
316.86	2.206
317.33	2.166
317.80	2.206
318.26	2.162
318.73	2.173
319.19	2.171
319.66	2.118
320.13	2.160
320.59	2.091
321.06	2.102
321.52	2.163
321.99	2.074
322.45	2.071
322.92	2.125
323.39	2.102
323.85	2.113
324.32	2.184
324.78	2.096
325.25	2.128
325.71	2.060
326.18	2.051
326.64	2.150
327.11	2.077
327.58	2.088
328.04	1.992
328.51	2.033
328.97	2.008
329.44	2.015
329.90	1.972
330.37	2.043
330.83	1.942
331.30	1.939
331.76	1.989
332.23	1.955
332.69	1.924
333.16	1.875
333.62	1.907
334.09	1.868
334.56	1.830
335.02	1.774
335.49	1.763
335.95	1.725
336.42	1.696
336.88	1.675
337.35	1.650
337.81	1.584
338.28	1.544
338.74	1.519
339.20	1.507
339.67	1.470
340.13	1.417
340.60	1.400
341.06	1.353
341.53	1.311
341.99	1.275
342.46	1.232
342.92	1.192
343.39	1.157
343.85	1.133
344.32	1.096
344.78	1.063
345.25	1.033
345.71	0.995
346.17	0.967
346.64	0.935
347.10	0.889
347.57	0.853
348.03	0.818
348.50	0.787
348.96	0.762
349.43	0.735
349.89	0.708
350.35	0.687
350.82	0.658
351.28	0.636
351.75	0.618
352.21	0.599
352.67	0.575
353.14	0.557
353.60	0.536
354.07	0.521
354.53	0.504
355.00	0.493
355.46	0.479
355.92	0.468
356.39	0.454
356.85	0.446
357.31	0.436
357.78	0.423
358.24	0.417
358.71	0.412
359.17	0.400
359.63	0.396
360.10	0.391
360.56	0.386
361.03	0.383
361.49	0.374
361.95	0.373
362.42	0.373
362.88	0.367
363.34	0.367
363.81	0.364
364.27	0.359
364.73	0.357
365.20	0.354
365.66	0.351
366.12	0.349
366.59	0.345
367.05	0.346
367.51	0.343
367.98	0.341
368.44	0.341
368.90	0.343
369.37	0.336
369.83	0.333
370.29	0.333
370.76	0.332
371.22	0.332
371.68	0.327
372.15	0.329
372.61	0.326
373.07	0.325
373.54	0.319
374.00	0.323
374.46	0.322
374.92	0.323
375.39	0.323
375.85	0.319
376.31	0.321
376.78	0.315
377.24	0.315
377.70	0.311
378.16	0.310
378.63	0.312
379.09	0.310
379.55	0.310
380.01	0.307
380.48	0.309
380.94	0.307
381.40	0.306
381.87	0.306
382.33	0.308
382.79	0.302
383.25	0.300
383.72	0.301
384.18	0.298
384.64	0.302
385.10	0.299
385.56	0.294
386.03	0.293
386.49	0.295
386.95	0.291
387.41	0.294
387.88	0.293
388.34	0.290
388.80	0.288
389.26	0.288
389.72	0.290
390.19	0.289
390.65	0.288
391.11	0.287
391.57	0.281
392.04	0.284
392.50	0.285
392.96	0.284
393.42	0.282
393.88	0.284
394.34	0.281
394.81	0.278
395.27	0.281
395.73	0.278
396.19	0.277
396.65	0.279
397.12	0.273
397.58	0.275
398.04	0.274
398.50	0.273
398.96	0.275
399.42	0.270
399.89	0.274
400.35	0.269
400.81	0.272
401.27	0.270
401.73	0.269
402.19	0.267
402.65	0.265
403.12	0.261
403.58	0.262
404.04	0.261
404.50	0.260
404.96	0.257
405.42	0.258
405.88	0.259
406.34	0.260
406.81	0.258
407.27	0.254
407.73	0.257
408.19	0.252
408.65	0.250
409.11	0.254
409.57	0.254
410.03	0.250
410.49	0.252
410.96	0.249
411.42	0.251
411.88	0.246
412.34	0.246
412.80	0.245
413.26	0.248
413.72	0.246
414.18	0.244
414.64	0.243
415.10	0.245
415.56	0.242
416.02	0.243
416.48	0.246
416.95	0.240
417.41	0.239
417.87	0.236
418.33	0.237
418.79	0.240
419.25	0.233
419.71	0.237
420.17	0.240
420.63	0.235
421.09	0.237
421.55	0.235
422.01	0.235
422.47	0.235
422.93	0.235
423.39	0.232
423.85	0.232
424.31	0.233
424.77	0.229
425.23	0.231
425.69	0.230
426.15	0.228
426.61	0.227
427.07	0.230
427.53	0.226
427.99	0.227
428.45	0.227
428.91	0.222
429.37	0.224
429.83	0.223
430.29	0.224
430.75	0.227
431.21	0.223
431.67	0.223
432.13	0.221
432.59	0.218
433.05	0.218
433.51	0.219
433.97	0.218
434.43	0.222
434.89	0.218
435.35	0.215
435.81	0.213
436.27	0.215
436.73	0.214
437.19	0.215
437.65	0.214
438.11	0.211
438.57	0.212
439.03	0.212
439.48	0.215
439.94	0.211
440.40	0.214
440.86	0.210
441.32	0.209
441.78	0.210
442.24	0.210
442.70	0.207
443.16	0.209
443.62	0.208
444.08	0.206
444.54	0.208
444.99	0.205
445.45	0.206
445.91	0.203
446.37	0.204
446.83	0.202
447.29	0.200
447.75	0.204
448.21	0.202
448.67	0.204
449.12	0.201
449.58	0.200
450.04	0.203
450.50	0.198
450.96	0.198
451.42	0.200
451.88	0.201
452.34	0.200
452.79	0.198
453.25	0.200
453.71	0.195
454.17	0.194
454.63	0.197
455.09	0.194
455.55	0.195
456.00	0.194
456.46	0.196
456.92	0.192
457.38	0.188
457.84	0.195
458.30	0.192
458.75	0.191
459.21	0.189
459.67	0.193
460.13	0.188
460.59	0.192
461.04	0.193
461.50	0.194
461.96	0.192
462.42	0.190
462.88	0.191
463.33	0.190
463.79	0.188
464.25	0.189
464.71	0.188
465.17	0.187
465.62	0.186
466.08	0.189
466.54	0.186
467.00	0.188
467.46	0.190
467.91	0.186
468.37	0.185
468.83	0.187
469.29	0.185
469.74	0.187
470.20	0.184
470.66	0.184
471.12	0.185
471.57	0.184
472.03	0.182
472.49	0.184
472.95	0.183
473.40	0.182
473.86	0.182
474.32	0.182
474.78	0.182
475.23	0.182
475.69	0.184
476.15	0.182
476.60	0.180
477.06	0.181
477.52	0.179
477.98	0.178
478.43	0.179
478.89	0.178
479.35	0.178
479.80	0.177
480.26	0.179
480.72	0.180
481.18	0.178
481.63	0.176
482.09	0.173
482.55	0.181
483.00	0.179
483.46	0.178
483.92	0.177
484.37	0.176
484.83	0.175
485.29	0.176
485.74	0.175
486.20	0.177
486.66	0.176
487.11	0.175
487.57	0.173
488.03	0.172
488.48	0.175
488.94	0.175
489.40	0.173
489.85	0.173
490.31	0.170
490.77	0.172
491.22	0.170
491.68	0.172
492.13	0.171
492.59	0.170
493.05	0.169
493.50	0.170
493.96	0.170
494.42	0.169
494.87	0.172
495.33	0.171
495.78	0.172
496.24	0.170
496.70	0.170
497.15	0.169
497.61	0.168
498.06	0.168
498.52	0.167
498.98	0.169
499.43	0.168
499.89	0.167
500.34	0.165
500.80	0.167
501.25	0.169
501.71	0.165
502.17	0.163
502.62	0.166
503.08	0.164
503.53	0.165
503.99	0.164
504.44	0.163
504.90	0.163
505.36	0.165
505.81	0.163
506.27	0.161
506.72	0.164
507.18	0.164
507.63	0.162
508.09	0.161
508.54	0.158
509.00	0.160
509.45	0.160
509.91	0.160
510.36	0.163
510.82	0.159
511.27	0.161
511.73	0.162
512.19	0.159
512.64	0.160
513.10	0.158
513.55	0.159
514.01	0.159
514.46	0.157
514.92	0.159
515.37	0.155
515.83	0.158
516.28	0.158
516.73	0.155
517.19	0.154
517.64	0.158
518.10	0.160
518.55	0.153
519.01	0.154
519.46	0.155
519.92	0.154
520.37	0.155
520.83	0.156
521.28	0.154
521.74	0.155
522.19	0.153
522.65	0.154
523.10	0.152
523.55	0.156
524.01	0.151
524.46	0.152
524.92	0.154
525.37	0.155
525.83	0.152
526.28	0.150
526.73	0.152
527.19	0.154
527.64	0.152
528.10	0.152
528.55	0.151
529.01	0.153
529.46	0.150
529.91	0.152
530.37	0.151
530.82	0.150
531.28	0.151
531.73	0.152
532.18	0.151
532.64	0.153
533.09	0.151
533.54	0.151
534.00	0.149
534.45	0.149
534.91	0.150
535.36	0.151
535.81	0.148
536.27	0.151
536.72	0.150
537.17	0.148
537.63	0.153
538.08	0.150
538.54	0.149
538.99	0.154
539.44	0.151
539.90	0.151
540.35	0.152
540.80	0.151
541.26	0.150
541.71	0.151
542.16	0.150
542.62	0.151
543.07	0.150
543.52	0.149
543.98	0.150
544.43	0.147
544.88	0.152
545.34	0.150
545.79	0.149
546.24	0.152
546.69	0.151
547.15	0.153
547.60	0.152
548.05	0.151
548.51	0.151
548.96	0.150
549.41	0.153
549.86	0.152
550.32	0.154
550.77	0.151
551.22	0.154
551.68	0.154
552.13	0.153
552.58	0.154
553.03	0.155
553.49	0.155
553.94	0.156
554.39	0.156
554.84	0.155
555.30	0.156
555.75	0.155
556.20	0.153
556.65	0.159
557.11	0.156
557.56	0.157
558.01	0.158
558.46	0.157
558.92	0.159
559.37	0.158
559.82	0.159
560.27	0.158
560.72	0.159
561.18	0.159
561.63	0.160
562.08	0.161
562.53	0.160
562.99	0.163
563.44	0.160
563.89	0.161
564.34	0.160
564.79	0.162
565.25	0.161
565.70	0.164
566.15	0.163
566.60	0.160
567.05	0.164
567.50	0.164
567.96	0.166
568.41	0.165
568.86	0.168
569.31	0.166
569.76	0.167
570.21	0.167
570.67	0.168
571.12	0.169
571.57	0.169
572.02	0.168
572.47	0.167
572.92	0.170
573.37	0.170
573.83	0.171
574.28	0.169
574.73	0.171
575.18	0.172
575.63	0.174
576.08	0.174
576.53	0.173
576.98	0.177
577.44	0.175
577.89	0.175
578.34	0.179
578.79	0.179
579.24	0.178
579.69	0.179
580.14	0.182
580.59	0.180
581.04	0.182
581.49	0.183
581.95	0.183
582.40	0.186
582.85	0.187
583.30	0.187
583.75	0.189
584.20	0.192
584.65	0.191
585.10	0.189
585.55	0.192
586.00	0.193
586.45	0.194
586.90	0.198
587.35	0.197
587.80	0.199
588.25	0.197
588.71	0.198
589.16	0.204
589.61	0.203
590.06	0.205
590.51	0.209
590.96	0.206
591.41	0.207
591.86	0.210
592.31	0.210
592.76	0.210
593.21	0.211
593.66	0.215
594.11	0.216
594.56	0.216
595.01	0.219
595.46	0.221
595.91	0.223
596.36	0.223
596.81	0.225
597.26	0.228
597.71	0.229
598.16	0.230
598.61	0.233
599.06	0.233
599.51	0.234
599.96	0.236
600.41	0.238
600.86	0.238
601.31	0.241
601.76	0.244
602.21	0.244
602.65	0.245
603.10	0.246
603.55	0.249
604.00	0.252
604.45	0.250
604.90	0.253
605.35	0.255
605.80	0.256
606.25	0.259
606.70	0.258
607.15	0.260
607.60	0.259
608.05	0.262
608.50	0.263
608.95	0.264
609.39	0.267
609.84	0.268
610.29	0.270
610.74	0.266
611.19	0.268
611.64	0.268
612.09	0.268
612.54	0.271
612.99	0.270
613.44	0.274
613.88	0.273
614.33	0.270
614.78	0.273
615.23	0.273
615.68	0.272
616.13	0.276
616.58	0.277
617.03	0.275
617.47	0.277
617.92	0.275
618.37	0.277
618.82	0.277
619.27	0.278
619.72	0.280
620.17	0.278
620.61	0.278
621.06	0.278
621.51	0.279
621.96	0.279
622.41	0.281
622.86	0.281
623.30	0.281
623.75	0.283
624.20	0.284
624.65	0.282
625.10	0.282
625.54	0.284
625.99	0.285
626.44	0.286
626.89	0.287
627.34	0.287
627.78	0.288
628.23	0.289
628.68	0.290
629.13	0.290
629.58	0.291
630.02	0.292
630.47	0.294
630.92	0.295
631.37	0.296
631.81	0.296
632.26	0.298
632.71	0.299
633.16	0.302
633.61	0.303
634.05	0.303
634.50	0.305
634.95	0.309
635.40	0.307
635.84	0.309
636.29	0.312
636.74	0.314
637.18	0.315
637.63	0.316
638.08	0.323
638.53	0.325
638.97	0.325
639.42	0.329
639.87	0.330
640.32	0.330
640.76	0.332
641.21	0.337
641.66	0.335
642.10	0.340
642.55	0.340
643.00	0.345
643.44	0.348
643.89	0.350
644.34	0.352
644.79	0.357
645.23	0.356
645.68	0.361
646.13	0.366
646.57	0.364
647.02	0.370
647.47	0.374
647.91	0.374
648.36	0.378
648.81	0.381
649.25	0.382
649.70	0.383
650.15	0.385
650.59	0.390
651.04	0.390
651.48	0.395
651.93	0.397
652.38	0.401
652.82	0.400
653.27	0.402
653.72	0.405
654.16	0.410
654.61	0.412
655.06	0.412
655.50	0.412
655.95	0.415
656.39	0.416
656.84	0.419
657.29	0.422
657.73	0.426
658.18	0.425
658.62	0.426
659.07	0.430
659.52	0.432
659.96	0.432
660.41	0.432
660.85	0.434
661.30	0.435
661.74	0.437
662.19	0.438
662.64	0.439
663.08	0.439
663.53	0.441
663.97	0.441
664.42	0.439
664.86	0.441
665.31	0.441
665.75	0.439
666.20	0.439
666.65	0.442
667.09	0.437
667.54	0.433
667.98	0.433
668.43	0.432
668.87	0.430
669.32	0.431
669.76	0.423
670.21	0.422
670.65	0.421
671.10	0.417
671.54	0.413
671.99	0.409
672.43	0.403
672.88	0.400
673.32	0.393
673.77	0.393
674.21	0.385
674.66	0.379
675.10	0.376
675.55	0.368
675.99	0.363
676.44	0.357
676.88	0.351
677.33	0.343
677.77	0.336
678.22	0.328
678.66	0.324
679.11	0.314
679.55	0.310
679.99	0.305
680.44	0.296
680.88	0.288
681.33	0.281
681.77	0.277
682.22	0.269
682.66	0.261
683.11	0.254
683.55	0.248
683.99	0.240
684.44	0.238
684.88	0.228
685.33	0.223
685.77	0.218
686.21	0.210
686.66	0.205
687.10	0.198
687.55	0.196
687.99	0.193
688.44	0.186
688.88	0.181
689.32	0.176
689.77	0.173
690.21	0.169
690.65	0.160
691.10	0.159
691.54	0.157
691.99	0.149
692.43	0.147
692.87	0.146
693.32	0.142
693.76	0.139
694.20	0.135
694.65	0.132
695.09	0.132
695.53	0.129
695.98	0.126
696.42	0.123
696.86	0.119
697.31	0.118
697.75	0.118
698.19	0.114
698.64	0.115
699.08	0.113
699.52	0.110
699.97	0.108
700.41	0.107
700.85	0.104
701.30	0.106
701.74	0.105
702.18	0.103
702.63	0.101
703.07	0.098
703.51	0.099
703.96	0.097
704.40	0.096
704.84	0.096
705.28	0.094
705.73	0.095
706.17	0.093
706.61	0.094
707.06	0.091
707.50	0.093
707.94	0.090
708.38	0.089
708.83	0.090
709.27	0.087
709.71	0.089
710.15	0.090
710.60	0.088
711.04	0.088
711.48	0.087
711.92	0.083
712.37	0.087
712.81	0.086
713.25	0.086
713.69	0.087
714.13	0.086
714.58	0.084
715.02	0.085
715.46	0.084
715.90	0.085
716.35	0.084
716.79	0.084
717.23	0.085
717.67	0.084
718.11	0.084
718.56	0.083
719.00	0.082
719.44	0.082
719.88	0.083
720.32	0.083
720.76	0.082
721.21	0.081
721.65	0.079
722.09	0.082
722.53	0.080
722.97	0.084
723.41	0.083
723.86	0.083
724.30	0.082
724.74	0.081
725.18	0.081
725.62	0.081
726.06	0.080
726.50	0.083
726.95	0.082
727.39	0.080
727.83	0.082
728.27	0.080
728.71	0.080
729.15	0.080
729.59	0.084
730.03	0.083
730.48	0.083
730.92	0.079
731.36	0.083
731.80	0.083
732.24	0.080
732.68	0.083
733.12	0.084
733.56	0.082
734.00	0.085
734.44	0.083
734.89	0.082
735.33	0.084
735.77	0.083
736.21	0.083
736.65	0.082
737.09	0.080
737.53	0.083
737.97	0.082
738.41	0.079
738.85	0.086
739.29	0.083
739.73	0.083
740.17	0.083
740.61	0.083
741.05	0.083
741.49	0.083
741.93	0.082
742.37	0.082
742.81	0.083
743.26	0.079
743.70	0.083
744.14	0.081
744.58	0.083
745.02	0.081
745.46	0.083
745.90	0.082
746.34	0.084
746.78	0.084
747.22	0.082
747.66	0.082
748.10	0.078
748.54	0.081
748.98	0.080
749.42	0.083
749.86	0.082
750.29	0.077
750.73	0.078
751.17	0.080
751.61	0.081
752.05	0.081
752.49	0.082
752.93	0.077
753.37	0.081
753.81	0.081
754.25	0.078
754.69	0.080
755.13	0.077
755.57	0.081
756.01	0.079
756.45	0.077
756.89	0.078
757.33	0.082
757.77	0.078
758.21	0.079
758.64	0.082
759.08	0.076
759.52	0.077
759.96	0.078
760.40	0.080
760.84	0.079
761.28	0.080
761.72	0.079
762.16	0.080
762.60	0.079
763.03	0.078
763.47	0.078
763.91	0.077
764.35	0.078
764.79	0.077
765.23	0.078
765.67	0.076
766.11	0.075
766.54	0.080
766.98	0.078
767.42	0.075
767.86	0.077
768.30	0.081
768.74	0.076
769.17	0.075
769.61	0.076
770.05	0.078
770.49	0.079
770.93	0.076
771.37	0.078
771.80	0.076
772.24	0.077
772.68	0.077
773.12	0.078
773.56	0.076
774.00	0.078
774.43	0.076
774.87	0.078
775.31	0.077
775.75	0.075
776.19	0.076
776.62	0.079
777.06	0.078
777.50	0.075
777.94	0.075
778.37	0.077
778.81	0.073
779.25	0.077
779.69	0.072
780.13	0.078
780.56	0.078
781.00	0.078
781.44	0.076
781.88	0.075
782.31	0.077
782.75	0.073
783.19	0.073
783.63	0.074
784.06	0.074
784.50	0.076
784.94	0.080
785.37	0.074
785.81	0.076
786.25	0.074
786.69	0.072
787.12	0.075
787.56	0.076
788.00	0.074
788.43	0.074
788.87	0.074
789.31	0.074
789.75	0.077
790.18	0.076
790.62	0.077
791.06	0.074
791.49	0.071
791.93	0.072
792.37	0.073
792.80	0.071
793.24	0.070
793.68	0.076
794.11	0.075
794.55	0.073
794.99	0.070
795.42	0.072
795.86	0.071
796.30	0.071
796.73	0.074
797.17	0.075
797.61	0.070
798.04	0.070
798.48	0.073
798.91	0.070
799.35	0.072
799.79	0.070
800.22	0.079
800.66	0.073
801.10	0.071
801.53	0.076
801.97	0.072
802.40	0.070
802.84	0.073
803.28	0.076
803.71	0.072
804.15	0.072
804.58	0.073
805.02	0.071
805.46	0.072
805.89	0.077
806.33	0.073
806.76	0.071
807.20	0.073
807.63	0.075
808.07	0.073
808.51	0.068
808.94	0.073
809.38	0.071
809.81	0.072
810.25	0.073
810.68	0.072
811.12	0.071
811.55	0.071
811.99	0.072
812.42	0.071
812.86	0.073
813.29	0.070
813.73	0.068
814.17	0.077
814.60	0.069
815.04	0.071
815.47	0.073
815.91	0.072
816.34	0.073
816.78	0.068
817.21	0.069
817.65	0.073
818.08	0.069
818.52	0.072
818.95	0.071
819.39	0.069
819.82	0.064
820.25	0.071
820.69	0.068
821.12	0.071
821.56	0.066
821.99	0.077
822.43	0.067
822.86	0.067
823.30	0.068
823.73	0.068
824.17	0.067
824.60	0.066
825.04	0.070
825.47	0.073
825.90	0.067
826.34	0.068
826.77	0.073
827.21	0.075
827.64	0.071
828.08	0.075
828.51	0.074
828.94	0.072
829.38	0.071
829.81	0.074
830.25	0.076
830.68	0.079
831.11	0.079
831.55	0.076
831.98	0.077
832.42	0.071
832.85	0.078
833.28	0.079
833.72	0.077
834.15	0.075
834.58	0.075
835.02	0.080
835.45	0.077
835.88	0.075
836.32	0.076
836.75	0.077
837.19	0.071
837.62	0.077
838.05	0.077
838.49	0.076
838.92	0.080
839.35	0.073
839.79	0.085
840.22	0.075
840.65	0.080
841.09	0.081
841.52	0.077
841.95	0.073
842.39	0.079
842.82	0.077
843.25	0.076
843.68	0.078
844.12	0.081
844.55	0.077
844.98	0.079
845.42	0.076
845.85	0.076
846.28	0.076
846.71	0.079
847.15	0.078
847.58	0.080
848.01	0.077
848.45	0.081
848.88	0.082
849.31	0.074
849.74	0.079
850.18	0.077
850.61	0.078
851.04	0.079
851.47	0.074
851.91	0.084
852.34	0.077
852.77	0.073
853.20	0.079
853.64	0.080
854.07	0.077
854.50	0.079
854.93	0.074
855.36	0.080
855.80	0.080
856.23	0.078
856.66	0.085
857.09	0.079
857.52	0.070
857.96	0.074
858.39	0.082
858.82	0.077
859.25	0.081
859.68	0.085
860.12	0.077
860.55	0.083
860.98	0.086
861.41	0.085
861.84	0.079
862.27	0.078
862.71	0.080
863.14	0.081
863.57	0.073
864.00	0.081
864.43	0.081
864.86	0.084
865.30	0.081
865.73	0.084
866.16	0.080
866.59	0.081
867.02	0.078
867.45	0.079
867.88	0.077
868.31	0.077
868.75	0.084
869.18	0.082
869.61	0.078
870.04	0.078
870.47	0.074
870.90	0.079
871.33	0.083
871.76	0.080
872.19	0.085
872.62	0.090
873.06	0.079
873.49	0.083
873.92	0.080
874.35	0.083
874.78	0.086
875.21	0.079
875.64	0.080
876.07	0.084
876.50	0.081
876.93	0.086
877.36	0.080
877.79	0.078
878.22	0.085
878.65	0.086
879.08	0.084
879.51	0.088
879.94	0.086
880.37	0.083
880.80	0.088
881.23	0.082
881.67	0.086
882.10	0.092
882.53	0.089
882.96	0.082
883.39	0.088
883.82	0.085
884.25	0.082
884.68	0.083
885.11	0.084
885.54	0.079
885.97	0.085
886.39	0.086
886.82	0.087
887.25	0.082
887.68	0.089
888.11	0.089
888.54	0.087
888.97	0.089
889.40	0.080
889.83	0.086
890.26	0.090
890.69	0.087
891.12	0.085
891.55	0.087
891.98	0.079
892.41	0.089
892.84	0.087
893.27	0.083
893.70	0.087
894.13	0.083
894.56	0.086
894.98	0.083
895.41	0.085
895.84	0.088
896.27	0.090
896.70	0.091
897.13	0.093
897.56	0.090
897.99	0.088
898.42	0.085
898.85	0.093
899.27	0.093
899.70	0.092
900.13	0.089
900.56	0.096
900.99	0.091
901.42	0.091
901.85	0.091
902.28	0.091
902.70	0.088
903.13	0.092
903.56	0.091
903.99	0.091
904.42	0.091
904.85	0.092
905.27	0.093
905.70	0.094
906.13	0.094
906.56	0.095
906.99	0.091
907.42	0.092
907.84	0.095
908.27	0.094
908.70	0.092
909.13	0.092
909.56	0.093
909.98	0.089
910.41	0.086
910.84	0.089
911.27	0.093
911.70	0.090
912.12	0.090
912.55	0.089
912.98	0.089
913.41	0.092
913.84	0.092
914.26	0.092
914.69	0.091
915.12	0.090
915.55	0.088
915.97	0.093
916.40	0.094
916.83	0.089
917.26	0.097
917.68	0.093
918.11	0.088
918.54	0.092
918.97	0.092
919.39	0.093
919.82	0.093
920.25	0.094
920.67	0.094
921.10	0.095
921.53	0.095
921.96	0.100
922.38	0.096
922.81	0.093
923.24	0.096
923.66	0.095
924.09	0.098
924.52	0.093
924.94	0.096
925.37	0.100
925.80	0.099
926.22	0.096
926.65	0.100
927.08	0.101
927.50	0.095
927.93	0.103
928.36	0.107
928.78	0.099
929.21	0.104
929.64	0.107
930.06	0.105
930.49	0.108
930.92	0.109
931.34	0.111
931.77	0.107
932.20	0.109
932.62	0.109
933.05	0.118
933.47	0.119
933.90	0.118
934.33	0.114
934.75	0.119
935.18	0.122
935.61	0.121
936.03	0.119
936.46	0.124
936.88	0.123
937.31	0.123
937.73	0.131
938.16	0.125
938.59	0.134
939.01	0.126
939.44	0.132
939.86	0.135
940.29	0.131
940.71	0.139
941.14	0.151
941.57	0.140
941.99	0.151
942.42	0.149
942.84	0.149
943.27	0.149
943.69	0.152
944.12	0.155
944.54	0.158
944.97	0.152
945.39	0.163
945.82	0.157
946.24	0.156
946.67	0.169
947.09	0.168
947.52	0.165
947.94	0.170
948.37	0.172
948.79	0.177
949.22	0.176
949.64	0.187
950.07	0.186
950.49	0.189
950.92	0.193
951.34	0.191
951.77	0.198
952.19	0.194
952.62	0.201
953.04	0.201
953.47	0.205
953.89	0.211
954.32	0.207
954.74	0.211
955.17	0.217
955.59	0.219
956.01	0.222
956.44	0.231
956.86	0.227
957.29	0.232
957.71	0.240
958.14	0.237
958.56	0.235
958.98	0.235
959.41	0.242
959.83	0.237
960.26	0.237
960.68	0.248
961.10	0.243
961.53	0.246
961.95	0.257
962.38	0.255
962.80	0.246
963.22	0.262
963.65	0.249
964.07	0.252
964.50	0.253
964.92	0.256
965.34	0.260
965.77	0.257
966.19	0.250
966.61	0.262
967.04	0.259
967.46	0.255
967.88	0.257
968.31	0.257
968.73	0.267
969.15	0.264
969.58	0.256
970.00	0.260
970.42	0.262
970.85	0.258
971.27	0.269
971.69	0.270
972.12	0.260
972.54	0.266
972.96	0.258
973.39	0.264
973.81	0.267
974.23	0.264
974.65	0.266
975.08	0.266
975.50	0.261
975.92	0.267
976.35	0.268
976.77	0.260
977.19	0.265
977.61	0.266
978.04	0.263
978.46	0.262
978.88	0.258
979.30	0.271
979.73	0.263
980.15	0.265
980.57	0.260
980.99	0.273
981.42	0.255
981.84	0.259
982.26	0.266
982.68	0.257
983.11	0.271
983.53	0.260
983.95	0.268
984.37	0.267
984.79	0.259
985.22	0.261
985.64	0.258
986.06	0.254
986.48	0.262
986.90	0.258
987.33	0.254
987.75	0.253
988.17	0.247
988.59	0.256
989.01	0.249
989.43	0.252
989.86	0.263
990.28	0.255
990.70	0.254
991.12	0.250
991.54	0.255
991.96	0.243
992.39	0.249
992.81	0.246
993.23	0.247
993.65	0.244
994.07	0.252
994.49	0.252
994.91	0.246
995.34	0.243
995.76	0.247
996.18	0.243
996.60	0.239
997.02	0.235
997.44	0.240
997.86	0.230
998.28	0.243
998.70	0.232
999.12	0.249
999.55	0.241
999.97	0.243
1000.39	0.241
1000.81	0.240
1001.23	0.230
1001.65	0.225
1002.07	0.235
1002.49	0.235
1002.91	0.230
1003.33	0.228
1003.75	0.233
1004.17	0.235
1004.59	0.228
1005.01	0.226
1005.43	0.232
1005.85	0.221
1006.28	0.233
1006.70	0.228
1007.12	0.218
1007.54	0.221
1007.96	0.229
1008.38	0.221
1008.80	0.220
1009.22	0.219
1009.64	0.221
1010.06	0.227
1010.48	0.223
1010.90	0.213
1011.32	0.217
1011.74	0.211
1012.16	0.208
1012.58	0.213
1013.00	0.212
1013.42	0.220
1013.84	0.210
1014.26	0.216
1014.67	0.212
1015.09	0.208
1015.51	0.205
1015.93	0.204
1016.35	0.207
1016.77	0.201
1017.19	0.201
1017.61	0.198
1018.03	0.202
1018.45	0.199
1018.87	0.209
1019.29	0.206
1019.71	0.182
1020.13	0.204
1020.55	0.205
1020.97	0.189
1021.38	0.192
1021.80	0.194
1022.22	0.196
1022.64	0.191
1023.06	0.177
1023.48	0.194
1023.90	0.201
1024.32	0.174
1024.74	0.186
1025.15	0.187
1025.57	0.169
1025.99	0.183
1026.41	0.182
1026.83	0.180
1027.25	0.194
1027.67	0.184
1028.08	0.167
1028.50	0.186
1028.92	0.173
1029.34	0.182
1029.76	0.168
1030.18	0.171
1030.60	0.168
1031.01	0.170
1031.43	0.165
1031.85	0.171
1032.27	0.155
1032.69	0.173
1033.10	0.169
1033.52	0.163
1033.94	0.176
1034.36	0.158
1034.78	0.161
1035.19	0.162
1035.61	0.150
1036.03	0.155
1036.45	0.154
1036.87	0.143
1037.28	0.149
1037.70	0.168
1038.12	0.150
1038.54	0.139
1038.95	0.136
1039.37	0.140
1039.79	0.140
1040.21	0.141
1040.62	0.133
1041.04	0.146
1041.46	0.146
1041.88	0.157
1042.29	0.148
1042.71	0.133
1043.13	0.132
1043.55	0.160
1043.96	0.145
1044.38	0.160
1044.80	0.147
1045.21	0.131
1045.63	0.147
1046.05	0.136
1046.47	0.155
1046.88	0.160
1047.30	0.141
1047.72	0.149
1048.13	0.131
1048.55	0.157
1048.97	0.113
1049.38	0.142
1049.80	0.136
1050.22	0.118
1050.63	0.142
1051.05	0.122
1051.47	0.147
1051.88	0.149
1052.30	0.142
1052.72	0.123
1053.13	0.118
1053.55	0.166
1053.97	0.115
1054.38	0.139
1054.80	0.149
1055.21	0.127
1055.63	0.141
1056.05	0.143
1056.46	0.148
1056.88	0.129
1057.29	0.139
1057.71	0.131
1058.13	0.133
1058.54	0.130
1058.96	0.158
1059.37	0.158
1059.79	0.166
1060.21	0.142
1060.62	0.199
1061.04	0.144
1061.45	0.170
1061.87	0.139
1062.28	0.095
1062.70	0.175
1063.12	0.172
1063.53	0.181
1063.95	0.103
1064.36	0.148
1064.78	0.160
1065.19	0.141
1065.61	0.160
1066.02	0.172
1066.44	0.162
1066.85	0.190
1067.27	0.231
1067.68	0.211
1068.10	0.063
1068.51	0.165
1068.93	0.265
1069.35	0.129
1069.76	0.214
1070.17	0.177
1070.59	0.184
1071.00	0.265
1071.42	0.223
1071.83	0.315
1072.25	0.186
1072.66	0.209
1073.08	0.279
1073.49	0.275
1073.91	0.172
1074.32	0.363
1074.74	0.125
1075.15	0.297
1075.57	0.337
1075.98	0.268
1076.40	0.397
1076.81	0.167
1077.22	0.226
1077.64	0.339
1078.05	0.305
1078.47	0.242
1078.88	0.423
1079.30	0.583
1079.71	0.043
1080.12	0.319
1080.54	0.260
1080.95	0.538
1081.37	0.707
1081.78	0.362
1082.19	1.260
1082.61	0.416
1083.02	0.310
1083.44	0.900
1083.85	0.804
1084.26	0.348
1084.68	0.990
1085.09	-0.040
1085.50	1.069
1085.92	-0.000
1086.33	0.147
1086.74	0.595
1087.16	-0.000
1087.57	0.039
1087.98	-0.000
1088.40	-0.000
1088.81	-0.000
1089.22	-0.000
1089.64	0.960
1090.05	-0.000
1090.46	-0.000
1090.88	1.803
1091.29	-0.000
1091.70	0.926
1092.12	0.621
1092.53	-0.000
1092.94	1.246
1093.36	0.474
1093.77	0.401
1094.18	-0.000
1094.59	0.979
1095.01	-0.000
1095.42	0.277
1095.83	0.962
1096.25	-0.000
1096.66	0.959
1097.07	0.630
1097.48	1.431
1097.90	0.782
1098.31	-0.000
1098.72	-0.000
1099.13	0.483
>>>>>End Processed Spectral Data<<<<<
