SpectraSuite Data File
++++++++++++++++++++++++++++++++++++
Date: Mon Jul 10 13:52:17 CEST 2017
User: IPCE
Dark Spectrum Present: Yes
Reference Spectrum Present: Yes
Number of Sampled Component Spectra: 1
Spectrometers: HR+C0708
Integration Time (usec): 1000 (HR+C0708)
Spectra Averaged: 10 (HR+C0708)
Boxcar Smoothing: 0 (HR+C0708)
Correct for Electrical Dark: No (HR+C0708)
Strobe/Lamp Enabled: No (HR+C0708)
Correct for Detector Non-linearity: No (HR+C0708)
Correct for Stray Light: No (HR+C0708)
Number of Pixels in Processed Spectrum: 2048
>>>>>Begin Processed Spectral Data<<<<<
188.76	0.970
189.23	-0.000
189.70	-0.000
190.17	0.375
190.64	-0.000
191.12	-0.060
191.59	-0.000
192.06	-0.000
192.53	0.193
193.01	-0.000
193.48	-0.000
193.95	1.799
194.42	0.382
194.90	0.920
195.37	-0.000
195.84	0.757
196.31	-0.000
196.78	-0.000
197.26	0.571
197.73	0.522
198.20	-0.000
198.67	0.903
199.14	-0.000
199.62	-0.000
200.09	0.643
200.56	1.115
201.03	0.612
201.50	0.736
201.97	0.426
202.45	1.178
202.92	0.465
203.39	0.630
203.86	0.814
204.33	0.580
204.80	0.788
205.28	1.797
205.75	0.727
206.22	0.512
206.69	0.505
207.16	0.616
207.63	1.244
208.11	0.205
208.58	0.505
209.05	0.350
209.52	0.475
209.99	0.908
210.46	0.460
210.93	0.618
211.41	0.585
211.88	0.618
212.35	0.622
212.82	0.483
213.29	0.335
213.76	0.664
214.23	0.759
214.70	0.568
215.18	1.169
215.65	0.709
216.12	0.680
216.59	0.655
217.06	0.462
217.53	0.619
218.00	0.520
218.47	0.453
218.94	0.658
219.41	0.519
219.89	0.576
220.36	0.600
220.83	0.506
221.30	0.717
221.77	0.716
222.24	0.748
222.71	1.216
223.18	0.664
223.65	0.776
224.12	0.817
224.59	0.729
225.06	0.822
225.54	1.675
226.01	1.014
226.48	0.997
226.95	1.353
227.42	1.044
227.89	1.344
228.36	1.242
228.83	1.071
229.30	1.341
229.77	1.490
230.24	1.579
230.71	2.203
231.18	1.718
231.65	1.586
232.12	1.585
232.59	1.679
233.06	1.590
233.53	1.797
234.00	1.661
234.47	1.712
234.94	1.805
235.41	1.723
235.88	2.139
236.35	1.983
236.82	1.835
237.29	2.396
237.76	2.698
238.23	2.603
238.70	2.454
239.17	2.086
239.64	2.303
240.11	2.386
240.58	2.076
241.05	2.484
241.52	2.344
241.99	2.467
242.46	2.871
242.93	2.837
243.40	2.575
243.87	2.388
244.34	2.961
244.81	2.602
245.28	2.822
245.75	2.605
246.22	2.575
246.69	2.578
247.16	2.491
247.63	2.723
248.10	2.863
248.57	2.559
249.04	2.480
249.51	2.653
249.98	2.504
250.45	2.678
250.92	2.723
251.39	2.762
251.85	2.554
252.32	2.634
252.79	3.457
253.26	2.407
253.73	2.670
254.20	2.398
254.67	2.625
255.14	2.872
255.61	2.884
256.08	2.627
256.55	2.579
257.02	2.752
257.49	2.589
257.95	2.788
258.42	2.588
258.89	2.750
259.36	2.843
259.83	2.529
260.30	2.714
260.77	2.688
261.24	2.793
261.71	2.696
262.17	2.749
262.64	2.663
263.11	2.896
263.58	3.234
264.05	2.879
264.52	2.804
264.99	2.840
265.46	2.874
265.92	2.802
266.39	2.872
266.86	3.003
267.33	2.914
267.80	2.646
268.27	2.931
268.74	2.890
269.20	2.781
269.67	2.781
270.14	2.902
270.61	2.814
271.08	2.710
271.55	2.717
272.01	2.811
272.48	2.813
272.95	2.629
273.42	3.057
273.89	2.652
274.36	2.657
274.82	2.846
275.29	2.699
275.76	2.682
276.23	2.789
276.70	2.544
277.16	2.769
277.63	2.663
278.10	2.777
278.57	2.992
279.04	2.903
279.50	2.581
279.97	2.703
280.44	2.734
280.91	2.871
281.38	3.077
281.84	2.699
282.31	2.756
282.78	2.734
283.25	2.521
283.72	2.730
284.18	2.764
284.65	2.844
285.12	2.608
285.59	2.790
286.05	2.625
286.52	2.768
286.99	2.658
287.46	2.709
287.92	2.633
288.39	2.509
288.86	2.816
289.33	2.792
289.79	2.676
290.26	2.632
290.73	2.565
291.20	2.671
291.66	2.574
292.13	2.577
292.60	2.612
293.07	2.701
293.53	2.564
294.00	2.519
294.47	2.567
294.93	2.447
295.40	2.593
295.87	2.396
296.34	2.596
296.80	2.721
297.27	2.524
297.74	2.572
298.20	2.497
298.67	2.567
299.14	2.733
299.60	2.602
300.07	2.398
300.54	2.575
301.01	2.442
301.47	2.398
301.94	2.534
302.41	2.477
302.87	2.440
303.34	2.400
303.81	2.247
304.27	2.401
304.74	2.323
305.21	2.272
305.67	2.479
306.14	2.321
306.61	2.252
307.07	2.402
307.54	2.285
308.01	2.349
308.47	2.361
308.94	2.290
309.40	2.374
309.87	2.286
310.34	2.243
310.80	2.301
311.27	2.301
311.74	2.196
312.20	2.257
312.67	2.277
313.13	2.352
313.60	2.342
314.07	2.257
314.53	2.323
315.00	2.311
315.47	2.286
315.93	2.270
316.40	2.282
316.86	2.299
317.33	2.338
317.80	2.272
318.26	2.306
318.73	2.306
319.19	2.278
319.66	2.254
320.13	2.379
320.59	2.164
321.06	2.214
321.52	2.313
321.99	2.192
322.45	2.249
322.92	2.228
323.39	2.220
323.85	2.260
324.32	2.186
324.78	2.192
325.25	2.282
325.71	2.137
326.18	2.190
326.64	2.189
327.11	2.045
327.58	2.184
328.04	2.053
328.51	2.016
328.97	2.161
329.44	2.096
329.90	2.039
330.37	2.079
330.83	1.938
331.30	1.959
331.76	1.969
332.23	1.927
332.69	1.923
333.16	1.904
333.62	1.843
334.09	1.830
334.56	1.784
335.02	1.727
335.49	1.708
335.95	1.637
336.42	1.609
336.88	1.569
337.35	1.530
337.81	1.484
338.28	1.434
338.74	1.390
339.20	1.382
339.67	1.336
340.13	1.277
340.60	1.230
341.06	1.185
341.53	1.150
341.99	1.099
342.46	1.055
342.92	1.019
343.39	0.976
343.85	0.941
344.32	0.909
344.78	0.873
345.25	0.843
345.71	0.817
346.17	0.782
346.64	0.743
347.10	0.705
347.57	0.664
348.03	0.638
348.50	0.608
348.96	0.583
349.43	0.560
349.89	0.533
350.35	0.511
350.82	0.493
351.28	0.471
351.75	0.453
352.21	0.438
352.67	0.420
353.14	0.403
353.60	0.390
354.07	0.373
354.53	0.362
355.00	0.351
355.46	0.338
355.92	0.328
356.39	0.318
356.85	0.308
357.31	0.309
357.78	0.297
358.24	0.295
358.71	0.290
359.17	0.279
359.63	0.277
360.10	0.269
360.56	0.267
361.03	0.265
361.49	0.261
361.95	0.259
362.42	0.260
362.88	0.254
363.34	0.255
363.81	0.250
364.27	0.250
364.73	0.246
365.20	0.244
365.66	0.242
366.12	0.241
366.59	0.237
367.05	0.235
367.51	0.236
367.98	0.234
368.44	0.235
368.90	0.234
369.37	0.229
369.83	0.229
370.29	0.228
370.76	0.228
371.22	0.228
371.68	0.225
372.15	0.221
372.61	0.226
373.07	0.221
373.54	0.221
374.00	0.221
374.46	0.219
374.92	0.219
375.39	0.217
375.85	0.216
376.31	0.218
376.78	0.215
377.24	0.215
377.70	0.213
378.16	0.211
378.63	0.214
379.09	0.215
379.55	0.212
380.01	0.209
380.48	0.207
380.94	0.208
381.40	0.209
381.87	0.208
382.33	0.208
382.79	0.207
383.25	0.203
383.72	0.206
384.18	0.203
384.64	0.204
385.10	0.202
385.56	0.199
386.03	0.199
386.49	0.202
386.95	0.198
387.41	0.201
387.88	0.200
388.34	0.198
388.80	0.196
389.26	0.194
389.72	0.195
390.19	0.198
390.65	0.194
391.11	0.193
391.57	0.192
392.04	0.193
392.50	0.193
392.96	0.192
393.42	0.191
393.88	0.192
394.34	0.190
394.81	0.189
395.27	0.191
395.73	0.186
396.19	0.189
396.65	0.191
397.12	0.186
397.58	0.188
398.04	0.187
398.50	0.187
398.96	0.186
399.42	0.185
399.89	0.185
400.35	0.184
400.81	0.183
401.27	0.181
401.73	0.182
402.19	0.179
402.65	0.179
403.12	0.174
403.58	0.176
404.04	0.176
404.50	0.175
404.96	0.176
405.42	0.175
405.88	0.171
406.34	0.174
406.81	0.173
407.27	0.171
407.73	0.173
408.19	0.170
408.65	0.171
409.11	0.170
409.57	0.168
410.03	0.167
410.49	0.169
410.96	0.167
411.42	0.164
411.88	0.164
412.34	0.165
412.80	0.165
413.26	0.165
413.72	0.165
414.18	0.163
414.64	0.161
415.10	0.160
415.56	0.162
416.02	0.163
416.48	0.165
416.95	0.156
417.41	0.160
417.87	0.159
418.33	0.157
418.79	0.158
419.25	0.156
419.71	0.156
420.17	0.159
420.63	0.157
421.09	0.158
421.55	0.155
422.01	0.156
422.47	0.154
422.93	0.155
423.39	0.154
423.85	0.152
424.31	0.155
424.77	0.153
425.23	0.154
425.69	0.153
426.15	0.156
426.61	0.150
427.07	0.150
427.53	0.151
427.99	0.147
428.45	0.150
428.91	0.148
429.37	0.149
429.83	0.150
430.29	0.150
430.75	0.151
431.21	0.151
431.67	0.148
432.13	0.148
432.59	0.144
433.05	0.147
433.51	0.146
433.97	0.145
434.43	0.146
434.89	0.145
435.35	0.142
435.81	0.143
436.27	0.144
436.73	0.141
437.19	0.145
437.65	0.145
438.11	0.143
438.57	0.143
439.03	0.141
439.48	0.141
439.94	0.143
440.40	0.140
440.86	0.141
441.32	0.140
441.78	0.137
442.24	0.141
442.70	0.135
443.16	0.139
443.62	0.136
444.08	0.137
444.54	0.137
444.99	0.140
445.45	0.138
445.91	0.134
446.37	0.138
446.83	0.134
447.29	0.136
447.75	0.134
448.21	0.135
448.67	0.133
449.12	0.132
449.58	0.136
450.04	0.136
450.50	0.133
450.96	0.132
451.42	0.133
451.88	0.135
452.34	0.134
452.79	0.131
453.25	0.133
453.71	0.130
454.17	0.131
454.63	0.132
455.09	0.131
455.55	0.126
456.00	0.130
456.46	0.130
456.92	0.131
457.38	0.127
457.84	0.131
458.30	0.128
458.75	0.128
459.21	0.125
459.67	0.130
460.13	0.128
460.59	0.128
461.04	0.127
461.50	0.130
461.96	0.128
462.42	0.129
462.88	0.129
463.33	0.126
463.79	0.126
464.25	0.126
464.71	0.127
465.17	0.128
465.62	0.124
466.08	0.128
466.54	0.127
467.00	0.130
467.46	0.127
467.91	0.127
468.37	0.124
468.83	0.129
469.29	0.127
469.74	0.129
470.20	0.128
470.66	0.126
471.12	0.129
471.57	0.128
472.03	0.126
472.49	0.126
472.95	0.125
473.40	0.125
473.86	0.126
474.32	0.124
474.78	0.125
475.23	0.124
475.69	0.127
476.15	0.125
476.60	0.124
477.06	0.126
477.52	0.124
477.98	0.124
478.43	0.124
478.89	0.124
479.35	0.121
479.80	0.124
480.26	0.123
480.72	0.123
481.18	0.124
481.63	0.124
482.09	0.121
482.55	0.123
483.00	0.123
483.46	0.123
483.92	0.123
484.37	0.123
484.83	0.119
485.29	0.123
485.74	0.121
486.20	0.124
486.66	0.123
487.11	0.122
487.57	0.121
488.03	0.121
488.48	0.121
488.94	0.121
489.40	0.121
489.85	0.121
490.31	0.120
490.77	0.119
491.22	0.119
491.68	0.120
492.13	0.120
492.59	0.120
493.05	0.119
493.50	0.117
493.96	0.118
494.42	0.120
494.87	0.120
495.33	0.119
495.78	0.120
496.24	0.121
496.70	0.119
497.15	0.118
497.61	0.119
498.06	0.120
498.52	0.118
498.98	0.121
499.43	0.120
499.89	0.118
500.34	0.118
500.80	0.118
501.25	0.118
501.71	0.118
502.17	0.118
502.62	0.119
503.08	0.116
503.53	0.117
503.99	0.114
504.44	0.116
504.90	0.115
505.36	0.116
505.81	0.115
506.27	0.116
506.72	0.116
507.18	0.116
507.63	0.114
508.09	0.115
508.54	0.114
509.00	0.116
509.45	0.116
509.91	0.114
510.36	0.113
510.82	0.113
511.27	0.114
511.73	0.115
512.19	0.112
512.64	0.115
513.10	0.111
513.55	0.113
514.01	0.114
514.46	0.115
514.92	0.113
515.37	0.111
515.83	0.113
516.28	0.112
516.73	0.112
517.19	0.109
517.64	0.114
518.10	0.112
518.55	0.109
519.01	0.109
519.46	0.109
519.92	0.110
520.37	0.111
520.83	0.111
521.28	0.110
521.74	0.111
522.19	0.109
522.65	0.109
523.10	0.111
523.55	0.111
524.01	0.110
524.46	0.109
524.92	0.109
525.37	0.110
525.83	0.109
526.28	0.107
526.73	0.111
527.19	0.110
527.64	0.110
528.10	0.108
528.55	0.109
529.01	0.112
529.46	0.111
529.91	0.110
530.37	0.112
530.82	0.108
531.28	0.110
531.73	0.110
532.18	0.111
532.64	0.109
533.09	0.109
533.54	0.112
534.00	0.109
534.45	0.111
534.91	0.110
535.36	0.110
535.81	0.110
536.27	0.111
536.72	0.110
537.17	0.111
537.63	0.114
538.08	0.114
538.54	0.110
538.99	0.111
539.44	0.112
539.90	0.111
540.35	0.112
540.80	0.115
541.26	0.116
541.71	0.113
542.16	0.114
542.62	0.114
543.07	0.114
543.52	0.113
543.98	0.115
544.43	0.114
544.88	0.117
545.34	0.115
545.79	0.115
546.24	0.116
546.69	0.117
547.15	0.119
547.60	0.119
548.05	0.118
548.51	0.118
548.96	0.118
549.41	0.119
549.86	0.120
550.32	0.121
550.77	0.119
551.22	0.122
551.68	0.122
552.13	0.123
552.58	0.123
553.03	0.123
553.49	0.122
553.94	0.123
554.39	0.126
554.84	0.123
555.30	0.125
555.75	0.123
556.20	0.125
556.65	0.127
557.11	0.129
557.56	0.129
558.01	0.129
558.46	0.132
558.92	0.133
559.37	0.131
559.82	0.131
560.27	0.131
560.72	0.133
561.18	0.133
561.63	0.132
562.08	0.133
562.53	0.135
562.99	0.136
563.44	0.135
563.89	0.137
564.34	0.140
564.79	0.136
565.25	0.138
565.70	0.141
566.15	0.142
566.60	0.139
567.05	0.141
567.50	0.143
567.96	0.143
568.41	0.145
568.86	0.145
569.31	0.146
569.76	0.146
570.21	0.147
570.67	0.148
571.12	0.147
571.57	0.149
572.02	0.152
572.47	0.150
572.92	0.151
573.37	0.153
573.83	0.154
574.28	0.154
574.73	0.154
575.18	0.157
575.63	0.158
576.08	0.159
576.53	0.158
576.98	0.160
577.44	0.161
577.89	0.163
578.34	0.165
578.79	0.166
579.24	0.166
579.69	0.169
580.14	0.170
580.59	0.171
581.04	0.172
581.49	0.175
581.95	0.174
582.40	0.177
582.85	0.178
583.30	0.178
583.75	0.181
584.20	0.185
584.65	0.183
585.10	0.185
585.55	0.187
586.00	0.189
586.45	0.192
586.90	0.195
587.35	0.194
587.80	0.196
588.25	0.198
588.71	0.201
589.16	0.204
589.61	0.204
590.06	0.207
590.51	0.211
590.96	0.209
591.41	0.212
591.86	0.217
592.31	0.216
592.76	0.216
593.21	0.221
593.66	0.225
594.11	0.226
594.56	0.229
595.01	0.231
595.46	0.232
595.91	0.234
596.36	0.238
596.81	0.241
597.26	0.243
597.71	0.245
598.16	0.247
598.61	0.250
599.06	0.252
599.51	0.254
599.96	0.256
600.41	0.258
600.86	0.262
601.31	0.264
601.76	0.266
602.21	0.269
602.65	0.270
603.10	0.274
603.55	0.278
604.00	0.278
604.45	0.281
604.90	0.283
605.35	0.285
605.80	0.287
606.25	0.289
606.70	0.292
607.15	0.292
607.60	0.293
608.05	0.297
608.50	0.298
608.95	0.300
609.39	0.303
609.84	0.305
610.29	0.306
610.74	0.306
611.19	0.308
611.64	0.310
612.09	0.308
612.54	0.309
612.99	0.314
613.44	0.313
613.88	0.316
614.33	0.315
614.78	0.314
615.23	0.317
615.68	0.317
616.13	0.322
616.58	0.322
617.03	0.319
617.47	0.321
617.92	0.322
618.37	0.323
618.82	0.320
619.27	0.324
619.72	0.324
620.17	0.324
620.61	0.324
621.06	0.325
621.51	0.327
621.96	0.326
622.41	0.327
622.86	0.328
623.30	0.329
623.75	0.329
624.20	0.330
624.65	0.333
625.10	0.331
625.54	0.332
625.99	0.331
626.44	0.336
626.89	0.334
627.34	0.337
627.78	0.338
628.23	0.340
628.68	0.340
629.13	0.341
629.58	0.341
630.02	0.346
630.47	0.347
630.92	0.348
631.37	0.352
631.81	0.351
632.26	0.354
632.71	0.353
633.16	0.359
633.61	0.359
634.05	0.364
634.50	0.364
634.95	0.368
635.40	0.371
635.84	0.373
636.29	0.378
636.74	0.378
637.18	0.380
637.63	0.382
638.08	0.386
638.53	0.391
638.97	0.394
639.42	0.400
639.87	0.399
640.32	0.402
640.76	0.407
641.21	0.410
641.66	0.413
642.10	0.417
642.55	0.420
643.00	0.425
643.44	0.430
643.89	0.434
644.34	0.437
644.79	0.443
645.23	0.442
645.68	0.451
646.13	0.452
646.57	0.456
647.02	0.461
647.47	0.465
647.91	0.469
648.36	0.476
648.81	0.479
649.25	0.480
649.70	0.487
650.15	0.490
650.59	0.496
651.04	0.499
651.48	0.501
651.93	0.505
652.38	0.510
652.82	0.512
653.27	0.515
653.72	0.522
654.16	0.527
654.61	0.529
655.06	0.532
655.50	0.534
655.95	0.535
656.39	0.542
656.84	0.544
657.29	0.549
657.73	0.549
658.18	0.554
658.62	0.558
659.07	0.559
659.52	0.559
659.96	0.565
660.41	0.567
660.85	0.568
661.30	0.568
661.74	0.573
662.19	0.576
662.64	0.576
663.08	0.579
663.53	0.581
663.97	0.579
664.42	0.580
664.86	0.582
665.31	0.583
665.75	0.582
666.20	0.583
666.65	0.580
667.09	0.580
667.54	0.574
667.98	0.575
668.43	0.573
668.87	0.571
669.32	0.566
669.76	0.564
670.21	0.561
670.65	0.552
671.10	0.551
671.54	0.547
671.99	0.541
672.43	0.534
672.88	0.526
673.32	0.521
673.77	0.512
674.21	0.505
674.66	0.494
675.10	0.487
675.55	0.478
675.99	0.469
676.44	0.461
676.88	0.452
677.33	0.444
677.77	0.433
678.22	0.421
678.66	0.410
679.11	0.401
679.55	0.391
679.99	0.381
680.44	0.370
680.88	0.361
681.33	0.350
681.77	0.340
682.22	0.329
682.66	0.320
683.11	0.309
683.55	0.298
683.99	0.292
684.44	0.286
684.88	0.272
685.33	0.266
685.77	0.256
686.21	0.247
686.66	0.241
687.10	0.229
687.55	0.223
687.99	0.217
688.44	0.209
688.88	0.203
689.32	0.193
689.77	0.189
690.21	0.183
690.65	0.174
691.10	0.169
691.54	0.165
691.99	0.160
692.43	0.152
692.87	0.149
693.32	0.143
693.76	0.139
694.20	0.137
694.65	0.132
695.09	0.127
695.53	0.125
695.98	0.120
696.42	0.117
696.86	0.113
697.31	0.111
697.75	0.110
698.19	0.107
698.64	0.103
699.08	0.100
699.52	0.099
699.97	0.096
700.41	0.095
700.85	0.090
701.30	0.089
701.74	0.088
702.18	0.085
702.63	0.086
703.07	0.083
703.51	0.085
703.96	0.083
704.40	0.080
704.84	0.079
705.28	0.077
705.73	0.076
706.17	0.073
706.61	0.073
707.06	0.070
707.50	0.071
707.94	0.068
708.38	0.067
708.83	0.070
709.27	0.067
709.71	0.066
710.15	0.066
710.60	0.066
711.04	0.064
711.48	0.064
711.92	0.062
712.37	0.062
712.81	0.062
713.25	0.063
713.69	0.064
714.13	0.061
714.58	0.062
715.02	0.062
715.46	0.059
715.90	0.059
716.35	0.061
716.79	0.056
717.23	0.058
717.67	0.059
718.11	0.060
718.56	0.060
719.00	0.057
719.44	0.057
719.88	0.059
720.32	0.058
720.76	0.059
721.21	0.057
721.65	0.055
722.09	0.056
722.53	0.056
722.97	0.057
723.41	0.057
723.86	0.058
724.30	0.055
724.74	0.059
725.18	0.057
725.62	0.055
726.06	0.057
726.50	0.058
726.95	0.055
727.39	0.056
727.83	0.057
728.27	0.055
728.71	0.056
729.15	0.057
729.59	0.059
730.03	0.055
730.48	0.058
730.92	0.057
731.36	0.059
731.80	0.057
732.24	0.057
732.68	0.056
733.12	0.059
733.56	0.058
734.00	0.059
734.44	0.058
734.89	0.059
735.33	0.059
735.77	0.058
736.21	0.059
736.65	0.058
737.09	0.057
737.53	0.059
737.97	0.057
738.41	0.059
738.85	0.060
739.29	0.060
739.73	0.059
740.17	0.062
740.61	0.058
741.05	0.057
741.49	0.060
741.93	0.059
742.37	0.059
742.81	0.057
743.26	0.058
743.70	0.056
744.14	0.056
744.58	0.058
745.02	0.056
745.46	0.059
745.90	0.057
746.34	0.059
746.78	0.059
747.22	0.057
747.66	0.059
748.10	0.056
748.54	0.059
748.98	0.057
749.42	0.059
749.86	0.058
750.29	0.058
750.73	0.055
751.17	0.057
751.61	0.056
752.05	0.057
752.49	0.057
752.93	0.053
753.37	0.056
753.81	0.059
754.25	0.056
754.69	0.059
755.13	0.055
755.57	0.057
756.01	0.054
756.45	0.055
756.89	0.054
757.33	0.058
757.77	0.055
758.21	0.055
758.64	0.058
759.08	0.054
759.52	0.054
759.96	0.056
760.40	0.053
760.84	0.057
761.28	0.053
761.72	0.057
762.16	0.056
762.60	0.056
763.03	0.051
763.47	0.055
763.91	0.055
764.35	0.053
764.79	0.054
765.23	0.058
765.67	0.056
766.11	0.054
766.54	0.057
766.98	0.055
767.42	0.054
767.86	0.055
768.30	0.056
768.74	0.055
769.17	0.052
769.61	0.054
770.05	0.055
770.49	0.059
770.93	0.054
771.37	0.052
771.80	0.054
772.24	0.054
772.68	0.056
773.12	0.057
773.56	0.053
774.00	0.054
774.43	0.054
774.87	0.050
775.31	0.056
775.75	0.053
776.19	0.053
776.62	0.056
777.06	0.053
777.50	0.053
777.94	0.052
778.37	0.055
778.81	0.053
779.25	0.054
779.69	0.051
780.13	0.058
780.56	0.057
781.00	0.054
781.44	0.054
781.88	0.057
782.31	0.054
782.75	0.053
783.19	0.052
783.63	0.051
784.06	0.053
784.50	0.052
784.94	0.052
785.37	0.051
785.81	0.055
786.25	0.054
786.69	0.054
787.12	0.056
787.56	0.054
788.00	0.053
788.43	0.054
788.87	0.051
789.31	0.051
789.75	0.054
790.18	0.050
790.62	0.055
791.06	0.054
791.49	0.054
791.93	0.053
792.37	0.051
792.80	0.049
793.24	0.050
793.68	0.052
794.11	0.051
794.55	0.052
794.99	0.048
795.42	0.048
795.86	0.047
796.30	0.049
796.73	0.051
797.17	0.056
797.61	0.053
798.04	0.054
798.48	0.052
798.91	0.048
799.35	0.051
799.79	0.050
800.22	0.052
800.66	0.052
801.10	0.053
801.53	0.050
801.97	0.048
802.40	0.050
802.84	0.052
803.28	0.053
803.71	0.051
804.15	0.049
804.58	0.050
805.02	0.052
805.46	0.053
805.89	0.054
806.33	0.051
806.76	0.051
807.20	0.053
807.63	0.055
808.07	0.054
808.51	0.048
808.94	0.051
809.38	0.050
809.81	0.055
810.25	0.057
810.68	0.052
811.12	0.051
811.55	0.052
811.99	0.055
812.42	0.051
812.86	0.053
813.29	0.053
813.73	0.053
814.17	0.054
814.60	0.049
815.04	0.053
815.47	0.049
815.91	0.057
816.34	0.047
816.78	0.049
817.21	0.048
817.65	0.051
818.08	0.051
818.52	0.048
818.95	0.050
819.39	0.050
819.82	0.049
820.25	0.054
820.69	0.050
821.12	0.053
821.56	0.050
821.99	0.051
822.43	0.049
822.86	0.051
823.30	0.052
823.73	0.049
824.17	0.049
824.60	0.049
825.04	0.055
825.47	0.055
825.90	0.048
826.34	0.051
826.77	0.053
827.21	0.054
827.64	0.056
828.08	0.049
828.51	0.052
828.94	0.054
829.38	0.055
829.81	0.054
830.25	0.052
830.68	0.058
831.11	0.058
831.55	0.057
831.98	0.053
832.42	0.056
832.85	0.064
833.28	0.059
833.72	0.058
834.15	0.057
834.58	0.056
835.02	0.061
835.45	0.057
835.88	0.053
836.32	0.057
836.75	0.057
837.19	0.059
837.62	0.054
838.05	0.058
838.49	0.056
838.92	0.057
839.35	0.057
839.79	0.061
840.22	0.058
840.65	0.061
841.09	0.059
841.52	0.060
841.95	0.061
842.39	0.060
842.82	0.062
843.25	0.058
843.68	0.063
844.12	0.060
844.55	0.057
844.98	0.060
845.42	0.057
845.85	0.056
846.28	0.059
846.71	0.063
847.15	0.059
847.58	0.061
848.01	0.060
848.45	0.058
848.88	0.063
849.31	0.057
849.74	0.061
850.18	0.059
850.61	0.061
851.04	0.064
851.47	0.060
851.91	0.067
852.34	0.058
852.77	0.058
853.20	0.061
853.64	0.067
854.07	0.057
854.50	0.064
854.93	0.065
855.36	0.059
855.80	0.063
856.23	0.060
856.66	0.064
857.09	0.054
857.52	0.055
857.96	0.053
858.39	0.059
858.82	0.060
859.25	0.064
859.68	0.064
860.12	0.058
860.55	0.064
860.98	0.067
861.41	0.066
861.84	0.060
862.27	0.060
862.71	0.064
863.14	0.060
863.57	0.065
864.00	0.063
864.43	0.060
864.86	0.059
865.30	0.061
865.73	0.063
866.16	0.060
866.59	0.067
867.02	0.065
867.45	0.061
867.88	0.058
868.31	0.064
868.75	0.064
869.18	0.067
869.61	0.064
870.04	0.064
870.47	0.062
870.90	0.058
871.33	0.064
871.76	0.060
872.19	0.064
872.62	0.074
873.06	0.061
873.49	0.064
873.92	0.063
874.35	0.068
874.78	0.067
875.21	0.060
875.64	0.065
876.07	0.071
876.50	0.065
876.93	0.068
877.36	0.066
877.79	0.060
878.22	0.070
878.65	0.064
879.08	0.063
879.51	0.064
879.94	0.064
880.37	0.068
880.80	0.066
881.23	0.064
881.67	0.062
882.10	0.070
882.53	0.070
882.96	0.067
883.39	0.071
883.82	0.070
884.25	0.067
884.68	0.065
885.11	0.065
885.54	0.068
885.97	0.067
886.39	0.068
886.82	0.068
887.25	0.069
887.68	0.070
888.11	0.071
888.54	0.075
888.97	0.071
889.40	0.068
889.83	0.067
890.26	0.073
890.69	0.074
891.12	0.068
891.55	0.069
891.98	0.068
892.41	0.075
892.84	0.070
893.27	0.065
893.70	0.064
894.13	0.069
894.56	0.069
894.98	0.071
895.41	0.072
895.84	0.075
896.27	0.073
896.70	0.075
897.13	0.075
897.56	0.078
897.99	0.072
898.42	0.075
898.85	0.073
899.27	0.073
899.70	0.072
900.13	0.072
900.56	0.075
900.99	0.074
901.42	0.074
901.85	0.072
902.28	0.076
902.70	0.072
903.13	0.073
903.56	0.076
903.99	0.077
904.42	0.078
904.85	0.077
905.27	0.072
905.70	0.075
906.13	0.075
906.56	0.077
906.99	0.073
907.42	0.078
907.84	0.077
908.27	0.076
908.70	0.074
909.13	0.077
909.56	0.078
909.98	0.073
910.41	0.072
910.84	0.073
911.27	0.072
911.70	0.074
912.12	0.076
912.55	0.072
912.98	0.072
913.41	0.075
913.84	0.075
914.26	0.072
914.69	0.077
915.12	0.079
915.55	0.072
915.97	0.075
916.40	0.076
916.83	0.072
917.26	0.074
917.68	0.073
918.11	0.076
918.54	0.075
918.97	0.075
919.39	0.075
919.82	0.077
920.25	0.078
920.67	0.077
921.10	0.077
921.53	0.078
921.96	0.081
922.38	0.080
922.81	0.077
923.24	0.078
923.66	0.078
924.09	0.080
924.52	0.080
924.94	0.079
925.37	0.083
925.80	0.086
926.22	0.085
926.65	0.087
927.08	0.086
927.50	0.085
927.93	0.086
928.36	0.089
928.78	0.088
929.21	0.090
929.64	0.090
930.06	0.088
930.49	0.090
930.92	0.096
931.34	0.097
931.77	0.094
932.20	0.098
932.62	0.102
933.05	0.095
933.47	0.103
933.90	0.096
934.33	0.098
934.75	0.101
935.18	0.109
935.61	0.101
936.03	0.108
936.46	0.111
936.88	0.114
937.31	0.110
937.73	0.108
938.16	0.111
938.59	0.122
939.01	0.117
939.44	0.117
939.86	0.121
940.29	0.122
940.71	0.128
941.14	0.130
941.57	0.123
941.99	0.131
942.42	0.129
942.84	0.133
943.27	0.136
943.69	0.135
944.12	0.148
944.54	0.142
944.97	0.143
945.39	0.143
945.82	0.142
946.24	0.141
946.67	0.154
947.09	0.148
947.52	0.146
947.94	0.153
948.37	0.157
948.79	0.165
949.22	0.160
949.64	0.170
950.07	0.169
950.49	0.177
950.92	0.177
951.34	0.183
951.77	0.185
952.19	0.174
952.62	0.186
953.04	0.185
953.47	0.193
953.89	0.195
954.32	0.192
954.74	0.192
955.17	0.193
955.59	0.209
956.01	0.199
956.44	0.209
956.86	0.211
957.29	0.216
957.71	0.217
958.14	0.222
958.56	0.219
958.98	0.226
959.41	0.223
959.83	0.219
960.26	0.222
960.68	0.226
961.10	0.227
961.53	0.240
961.95	0.239
962.38	0.235
962.80	0.237
963.22	0.237
963.65	0.234
964.07	0.237
964.50	0.236
964.92	0.234
965.34	0.238
965.77	0.242
966.19	0.243
966.61	0.242
967.04	0.244
967.46	0.243
967.88	0.238
968.31	0.240
968.73	0.244
969.15	0.249
969.58	0.241
970.00	0.248
970.42	0.242
970.85	0.239
971.27	0.247
971.69	0.250
972.12	0.252
972.54	0.248
972.96	0.242
973.39	0.251
973.81	0.253
974.23	0.249
974.65	0.244
975.08	0.255
975.50	0.247
975.92	0.258
976.35	0.252
976.77	0.248
977.19	0.246
977.61	0.254
978.04	0.254
978.46	0.247
978.88	0.256
979.30	0.252
979.73	0.252
980.15	0.252
980.57	0.245
980.99	0.250
981.42	0.242
981.84	0.256
982.26	0.254
982.68	0.249
983.11	0.246
983.53	0.237
983.95	0.246
984.37	0.246
984.79	0.246
985.22	0.257
985.64	0.247
986.06	0.247
986.48	0.248
986.90	0.244
987.33	0.244
987.75	0.235
988.17	0.232
988.59	0.246
989.01	0.238
989.43	0.240
989.86	0.251
990.28	0.237
990.70	0.240
991.12	0.247
991.54	0.237
991.96	0.238
992.39	0.233
992.81	0.239
993.23	0.234
993.65	0.236
994.07	0.234
994.49	0.233
994.91	0.234
995.34	0.229
995.76	0.231
996.18	0.231
996.60	0.226
997.02	0.219
997.44	0.223
997.86	0.222
998.28	0.229
998.70	0.220
999.12	0.230
999.55	0.237
999.97	0.225
1000.39	0.233
1000.81	0.226
1001.23	0.223
1001.65	0.220
1002.07	0.207
1002.49	0.228
1002.91	0.217
1003.33	0.227
1003.75	0.218
1004.17	0.231
1004.59	0.226
1005.01	0.216
1005.43	0.219
1005.85	0.205
1006.28	0.210
1006.70	0.215
1007.12	0.211
1007.54	0.210
1007.96	0.202
1008.38	0.202
1008.80	0.206
1009.22	0.213
1009.64	0.208
1010.06	0.200
1010.48	0.204
1010.90	0.202
1011.32	0.204
1011.74	0.207
1012.16	0.194
1012.58	0.197
1013.00	0.203
1013.42	0.204
1013.84	0.192
1014.26	0.200
1014.67	0.198
1015.09	0.193
1015.51	0.190
1015.93	0.192
1016.35	0.193
1016.77	0.180
1017.19	0.182
1017.61	0.192
1018.03	0.179
1018.45	0.183
1018.87	0.189
1019.29	0.186
1019.71	0.176
1020.13	0.188
1020.55	0.185
1020.97	0.190
1021.38	0.182
1021.80	0.177
1022.22	0.195
1022.64	0.178
1023.06	0.161
1023.48	0.181
1023.90	0.176
1024.32	0.169
1024.74	0.178
1025.15	0.169
1025.57	0.170
1025.99	0.168
1026.41	0.167
1026.83	0.158
1027.25	0.167
1027.67	0.168
1028.08	0.173
1028.50	0.178
1028.92	0.160
1029.34	0.146
1029.76	0.149
1030.18	0.166
1030.60	0.152
1031.01	0.160
1031.43	0.165
1031.85	0.151
1032.27	0.140
1032.69	0.149
1033.10	0.149
1033.52	0.165
1033.94	0.153
1034.36	0.147
1034.78	0.142
1035.19	0.153
1035.61	0.137
1036.03	0.151
1036.45	0.130
1036.87	0.122
1037.28	0.135
1037.70	0.142
1038.12	0.144
1038.54	0.133
1038.95	0.138
1039.37	0.141
1039.79	0.148
1040.21	0.126
1040.62	0.150
1041.04	0.127
1041.46	0.128
1041.88	0.136
1042.29	0.148
1042.71	0.124
1043.13	0.127
1043.55	0.133
1043.96	0.154
1044.38	0.136
1044.80	0.127
1045.21	0.127
1045.63	0.131
1046.05	0.113
1046.47	0.139
1046.88	0.149
1047.30	0.131
1047.72	0.136
1048.13	0.137
1048.55	0.115
1048.97	0.133
1049.38	0.124
1049.80	0.142
1050.22	0.097
1050.63	0.125
1051.05	0.117
1051.47	0.144
1051.88	0.143
1052.30	0.137
1052.72	0.107
1053.13	0.113
1053.55	0.122
1053.97	0.118
1054.38	0.173
1054.80	0.137
1055.21	0.111
1055.63	0.112
1056.05	0.156
1056.46	0.154
1056.88	0.147
1057.29	0.155
1057.71	0.113
1058.13	0.123
1058.54	0.111
1058.96	0.145
1059.37	0.122
1059.79	0.163
1060.21	0.166
1060.62	0.155
1061.04	0.124
1061.45	0.157
1061.87	0.164
1062.28	0.135
1062.70	0.166
1063.12	0.162
1063.53	0.168
1063.95	0.117
1064.36	0.133
1064.78	0.166
1065.19	0.087
1065.61	0.137
1066.02	0.236
1066.44	0.157
1066.85	0.167
1067.27	0.100
1067.68	0.116
1068.10	0.120
1068.51	0.203
1068.93	0.186
1069.35	0.172
1069.76	0.176
1070.17	0.203
1070.59	0.212
1071.00	0.273
1071.42	0.122
1071.83	0.182
1072.25	0.177
1072.66	0.260
1073.08	0.184
1073.49	0.173
1073.91	0.237
1074.32	0.204
1074.74	0.205
1075.15	0.358
1075.57	0.289
1075.98	0.310
1076.40	0.306
1076.81	0.249
1077.22	0.323
1077.64	0.238
1078.05	0.167
1078.47	0.299
1078.88	0.303
1079.30	0.451
1079.71	0.253
1080.12	0.245
1080.54	0.509
1080.95	0.557
1081.37	0.391
1081.78	0.346
1082.19	0.813
1082.61	0.386
1083.02	1.160
1083.44	0.689
1083.85	0.452
1084.26	0.533
1084.68	-0.000
1085.09	0.200
1085.50	-0.000
1085.92	0.392
1086.33	0.170
1086.74	0.158
1087.16	0.489
1087.57	-0.000
1087.98	0.530
1088.40	0.614
1088.81	0.865
1089.22	0.505
1089.64	0.437
1090.05	-0.000
1090.46	-0.000
1090.88	0.333
1091.29	2.170
1091.70	-0.000
1092.12	1.206
1092.53	-0.000
1092.94	0.811
1093.36	0.659
1093.77	0.176
1094.18	1.568
1094.59	-0.000
1095.01	-0.000
1095.42	0.342
1095.83	-0.000
1096.25	1.134
1096.66	-0.000
1097.07	0.674
1097.48	0.195
1097.90	-0.000
1098.31	0.201
1098.72	0.875
1099.13	0.637
>>>>>End Processed Spectral Data<<<<<
