SpectraSuite Data File
++++++++++++++++++++++++++++++++++++
Date: Mon Jul 10 14:14:47 CEST 2017
User: IPCE
Dark Spectrum Present: Yes
Reference Spectrum Present: Yes
Number of Sampled Component Spectra: 1
Spectrometers: HR+C0708
Integration Time (usec): 1000 (HR+C0708)
Spectra Averaged: 10 (HR+C0708)
Boxcar Smoothing: 0 (HR+C0708)
Correct for Electrical Dark: No (HR+C0708)
Strobe/Lamp Enabled: No (HR+C0708)
Correct for Detector Non-linearity: No (HR+C0708)
Correct for Stray Light: No (HR+C0708)
Number of Pixels in Processed Spectrum: 2048
>>>>>Begin Processed Spectral Data<<<<<
188.76	0.207
189.23	-0.000
189.70	-0.000
190.17	-0.000
190.64	-0.000
191.12	0.327
191.59	-0.000
192.06	-0.000
192.53	-0.000
193.01	-0.000
193.48	0.577
193.95	0.954
194.42	0.277
194.90	0.568
195.37	-0.000
195.84	0.372
196.31	-0.000
196.78	-0.000
197.26	0.521
197.73	1.170
198.20	-0.000
198.67	1.099
199.14	0.275
199.62	-0.000
200.09	1.064
200.56	-0.000
201.03	0.719
201.50	1.151
201.97	0.462
202.45	1.275
202.92	1.377
203.39	1.630
203.86	0.821
204.33	0.722
204.80	0.733
205.28	-0.000
205.75	-0.000
206.22	0.617
206.69	1.011
207.16	0.539
207.63	0.565
208.11	0.670
208.58	0.683
209.05	0.585
209.52	0.683
209.99	0.949
210.46	0.580
210.93	0.815
211.41	0.556
211.88	0.937
212.35	0.494
212.82	0.545
213.29	1.082
213.76	0.688
214.23	1.247
214.70	0.619
215.18	-0.000
215.65	1.135
216.12	0.736
216.59	0.435
217.06	0.770
217.53	0.697
218.00	0.696
218.47	0.817
218.94	0.727
219.41	0.575
219.89	0.677
220.36	0.600
220.83	0.767
221.30	0.834
221.77	0.699
222.24	1.084
222.71	1.332
223.18	0.744
223.65	1.214
224.12	0.876
224.59	0.784
225.06	0.979
225.54	1.474
226.01	1.963
226.48	1.342
226.95	1.433
227.42	1.169
227.89	1.544
228.36	1.491
228.83	1.188
229.30	1.313
229.77	1.391
230.24	1.742
230.71	2.282
231.18	1.908
231.65	1.708
232.12	1.801
232.59	1.963
233.06	1.681
233.53	1.593
234.00	1.878
234.47	1.813
234.94	1.966
235.41	1.827
235.88	2.546
236.35	1.943
236.82	2.094
237.29	-0.000
237.76	2.838
238.23	3.240
238.70	2.542
239.17	3.568
239.64	2.396
240.11	2.411
240.58	2.562
241.05	3.267
241.52	2.351
241.99	2.402
242.46	2.931
242.93	3.065
243.40	2.775
243.87	2.744
244.34	2.949
244.81	2.498
245.28	2.871
245.75	2.518
246.22	2.751
246.69	2.603
247.16	2.844
247.63	3.342
248.10	2.667
248.57	2.713
249.04	2.575
249.51	3.036
249.98	2.504
250.45	2.574
250.92	2.662
251.39	3.063
251.85	2.612
252.32	2.931
252.79	-0.000
253.26	2.576
253.73	2.614
254.20	2.516
254.67	2.564
255.14	2.904
255.61	2.808
256.08	2.836
256.55	2.904
257.02	2.928
257.49	3.064
257.95	2.913
258.42	2.728
258.89	2.599
259.36	2.905
259.83	2.720
260.30	2.788
260.77	2.680
261.24	2.868
261.71	2.883
262.17	2.774
262.64	2.607
263.11	3.066
263.58	2.989
264.05	2.852
264.52	2.814
264.99	2.963
265.46	2.713
265.92	2.761
266.39	3.084
266.86	3.154
267.33	2.781
267.80	2.764
268.27	2.881
268.74	2.906
269.20	2.814
269.67	2.951
270.14	2.726
270.61	2.783
271.08	2.817
271.55	2.942
272.01	2.955
272.48	2.683
272.95	2.801
273.42	2.928
273.89	2.588
274.36	2.733
274.82	2.727
275.29	2.673
275.76	2.804
276.23	2.693
276.70	2.583
277.16	2.700
277.63	2.743
278.10	2.636
278.57	2.929
279.04	2.699
279.50	2.467
279.97	2.489
280.44	2.554
280.91	2.614
281.38	2.649
281.84	2.570
282.31	2.664
282.78	2.713
283.25	2.559
283.72	2.631
284.18	2.572
284.65	2.767
285.12	2.531
285.59	2.598
286.05	2.536
286.52	2.505
286.99	2.648
287.46	2.668
287.92	2.480
288.39	2.577
288.86	2.584
289.33	2.565
289.79	2.591
290.26	2.564
290.73	2.488
291.20	2.556
291.66	2.464
292.13	2.440
292.60	2.402
293.07	2.430
293.53	2.448
294.00	2.424
294.47	2.452
294.93	2.382
295.40	2.619
295.87	2.317
296.34	2.450
296.80	2.503
297.27	2.477
297.74	2.341
298.20	2.307
298.67	2.373
299.14	2.414
299.60	2.353
300.07	2.274
300.54	2.304
301.01	2.312
301.47	2.353
301.94	2.343
302.41	2.351
302.87	2.277
303.34	2.229
303.81	2.115
304.27	2.210
304.74	2.175
305.21	2.179
305.67	2.237
306.14	2.189
306.61	2.141
307.07	2.229
307.54	2.146
308.01	2.266
308.47	2.192
308.94	2.146
309.40	2.190
309.87	2.129
310.34	2.125
310.80	2.194
311.27	2.151
311.74	2.103
312.20	2.051
312.67	2.122
313.13	2.101
313.60	2.111
314.07	2.104
314.53	2.071
315.00	2.063
315.47	2.090
315.93	2.086
316.40	2.054
316.86	2.095
317.33	2.089
317.80	2.079
318.26	2.093
318.73	2.076
319.19	2.027
319.66	2.030
320.13	2.087
320.59	2.021
321.06	1.981
321.52	2.050
321.99	2.010
322.45	2.013
322.92	2.031
323.39	2.016
323.85	2.016
324.32	2.029
324.78	1.958
325.25	2.032
325.71	1.973
326.18	1.928
326.64	2.007
327.11	1.957
327.58	1.984
328.04	1.878
328.51	1.896
328.97	1.958
329.44	1.895
329.90	1.893
330.37	1.900
330.83	1.849
331.30	1.907
331.76	1.896
332.23	1.851
332.69	1.869
333.16	1.809
333.62	1.814
334.09	1.790
334.56	1.771
335.02	1.720
335.49	1.716
335.95	1.659
336.42	1.653
336.88	1.622
337.35	1.587
337.81	1.559
338.28	1.532
338.74	1.514
339.20	1.507
339.67	1.463
340.13	1.425
340.60	1.391
341.06	1.363
341.53	1.326
341.99	1.278
342.46	1.249
342.92	1.223
343.39	1.182
343.85	1.164
344.32	1.132
344.78	1.100
345.25	1.078
345.71	1.049
346.17	1.017
346.64	0.974
347.10	0.943
347.57	0.919
348.03	0.894
348.50	0.859
348.96	0.841
349.43	0.816
349.89	0.786
350.35	0.771
350.82	0.752
351.28	0.727
351.75	0.707
352.21	0.686
352.67	0.672
353.14	0.660
353.60	0.632
354.07	0.613
354.53	0.602
355.00	0.591
355.46	0.577
355.92	0.570
356.39	0.554
356.85	0.541
357.31	0.532
357.78	0.521
358.24	0.516
358.71	0.507
359.17	0.495
359.63	0.494
360.10	0.483
360.56	0.481
361.03	0.477
361.49	0.468
361.95	0.467
362.42	0.464
362.88	0.456
363.34	0.463
363.81	0.453
364.27	0.450
364.73	0.449
365.20	0.442
365.66	0.445
366.12	0.440
366.59	0.438
367.05	0.435
367.51	0.433
367.98	0.431
368.44	0.429
368.90	0.428
369.37	0.425
369.83	0.423
370.29	0.419
370.76	0.421
371.22	0.420
371.68	0.415
372.15	0.412
372.61	0.410
373.07	0.413
373.54	0.408
374.00	0.408
374.46	0.408
374.92	0.408
375.39	0.403
375.85	0.401
376.31	0.403
376.78	0.395
377.24	0.398
377.70	0.396
378.16	0.394
378.63	0.396
379.09	0.394
379.55	0.393
380.01	0.389
380.48	0.386
380.94	0.387
381.40	0.388
381.87	0.386
382.33	0.387
382.79	0.389
383.25	0.381
383.72	0.380
384.18	0.377
384.64	0.382
385.10	0.378
385.56	0.374
386.03	0.373
386.49	0.374
386.95	0.373
387.41	0.372
387.88	0.370
388.34	0.369
388.80	0.369
389.26	0.366
389.72	0.367
390.19	0.368
390.65	0.362
391.11	0.362
391.57	0.360
392.04	0.359
392.50	0.359
392.96	0.356
393.42	0.356
393.88	0.356
394.34	0.353
394.81	0.357
395.27	0.354
395.73	0.348
396.19	0.350
396.65	0.353
397.12	0.350
397.58	0.348
398.04	0.348
398.50	0.349
398.96	0.345
399.42	0.345
399.89	0.344
400.35	0.341
400.81	0.342
401.27	0.341
401.73	0.341
402.19	0.340
402.65	0.337
403.12	0.335
403.58	0.336
404.04	0.333
404.50	0.331
404.96	0.331
405.42	0.331
405.88	0.329
406.34	0.331
406.81	0.329
407.27	0.324
407.73	0.325
408.19	0.326
408.65	0.324
409.11	0.324
409.57	0.325
410.03	0.322
410.49	0.320
410.96	0.320
411.42	0.320
411.88	0.318
412.34	0.317
412.80	0.317
413.26	0.316
413.72	0.317
414.18	0.312
414.64	0.312
415.10	0.311
415.56	0.311
416.02	0.313
416.48	0.312
416.95	0.305
417.41	0.307
417.87	0.308
418.33	0.305
418.79	0.307
419.25	0.302
419.71	0.304
420.17	0.305
420.63	0.299
421.09	0.300
421.55	0.302
422.01	0.299
422.47	0.299
422.93	0.301
423.39	0.301
423.85	0.298
424.31	0.296
424.77	0.295
425.23	0.297
425.69	0.292
426.15	0.294
426.61	0.290
427.07	0.290
427.53	0.292
427.99	0.290
428.45	0.291
428.91	0.287
429.37	0.287
429.83	0.289
430.29	0.292
430.75	0.291
431.21	0.288
431.67	0.285
432.13	0.283
432.59	0.278
433.05	0.281
433.51	0.283
433.97	0.281
434.43	0.280
434.89	0.276
435.35	0.277
435.81	0.276
436.27	0.276
436.73	0.274
437.19	0.278
437.65	0.276
438.11	0.277
438.57	0.272
439.03	0.269
439.48	0.275
439.94	0.272
440.40	0.272
440.86	0.271
441.32	0.272
441.78	0.268
442.24	0.267
442.70	0.266
443.16	0.265
443.62	0.264
444.08	0.263
444.54	0.264
444.99	0.265
445.45	0.264
445.91	0.259
446.37	0.262
446.83	0.261
447.29	0.258
447.75	0.261
448.21	0.259
448.67	0.257
449.12	0.254
449.58	0.258
450.04	0.255
450.50	0.254
450.96	0.255
451.42	0.252
451.88	0.256
452.34	0.253
452.79	0.253
453.25	0.255
453.71	0.251
454.17	0.250
454.63	0.254
455.09	0.251
455.55	0.251
456.00	0.250
456.46	0.245
456.92	0.246
457.38	0.241
457.84	0.247
458.30	0.244
458.75	0.244
459.21	0.242
459.67	0.247
460.13	0.238
460.59	0.240
461.04	0.244
461.50	0.241
461.96	0.240
462.42	0.240
462.88	0.240
463.33	0.239
463.79	0.240
464.25	0.240
464.71	0.240
465.17	0.239
465.62	0.238
466.08	0.242
466.54	0.238
467.00	0.239
467.46	0.238
467.91	0.236
468.37	0.234
468.83	0.235
469.29	0.235
469.74	0.233
470.20	0.232
470.66	0.232
471.12	0.235
471.57	0.233
472.03	0.232
472.49	0.231
472.95	0.229
473.40	0.230
473.86	0.229
474.32	0.229
474.78	0.231
475.23	0.230
475.69	0.228
476.15	0.227
476.60	0.227
477.06	0.224
477.52	0.224
477.98	0.224
478.43	0.226
478.89	0.223
479.35	0.224
479.80	0.224
480.26	0.226
480.72	0.225
481.18	0.222
481.63	0.222
482.09	0.221
482.55	0.221
483.00	0.222
483.46	0.221
483.92	0.219
484.37	0.220
484.83	0.218
485.29	0.222
485.74	0.218
486.20	0.220
486.66	0.221
487.11	0.219
487.57	0.216
488.03	0.217
488.48	0.217
488.94	0.218
489.40	0.218
489.85	0.216
490.31	0.217
490.77	0.215
491.22	0.214
491.68	0.216
492.13	0.212
492.59	0.213
493.05	0.214
493.50	0.213
493.96	0.212
494.42	0.212
494.87	0.211
495.33	0.213
495.78	0.212
496.24	0.210
496.70	0.210
497.15	0.208
497.61	0.209
498.06	0.209
498.52	0.206
498.98	0.211
499.43	0.209
499.89	0.208
500.34	0.206
500.80	0.207
501.25	0.208
501.71	0.204
502.17	0.205
502.62	0.205
503.08	0.205
503.53	0.203
503.99	0.201
504.44	0.204
504.90	0.202
505.36	0.202
505.81	0.201
506.27	0.201
506.72	0.203
507.18	0.199
507.63	0.200
508.09	0.200
508.54	0.198
509.00	0.199
509.45	0.201
509.91	0.198
510.36	0.198
510.82	0.200
511.27	0.198
511.73	0.199
512.19	0.197
512.64	0.197
513.10	0.195
513.55	0.197
514.01	0.195
514.46	0.196
514.92	0.195
515.37	0.193
515.83	0.194
516.28	0.194
516.73	0.194
517.19	0.189
517.64	0.194
518.10	0.195
518.55	0.193
519.01	0.192
519.46	0.192
519.92	0.192
520.37	0.194
520.83	0.192
521.28	0.191
521.74	0.191
522.19	0.189
522.65	0.187
523.10	0.191
523.55	0.191
524.01	0.190
524.46	0.190
524.92	0.190
525.37	0.188
525.83	0.187
526.28	0.187
526.73	0.189
527.19	0.188
527.64	0.188
528.10	0.187
528.55	0.185
529.01	0.185
529.46	0.187
529.91	0.185
530.37	0.188
530.82	0.183
531.28	0.183
531.73	0.186
532.18	0.183
532.64	0.183
533.09	0.184
533.54	0.184
534.00	0.183
534.45	0.184
534.91	0.185
535.36	0.183
535.81	0.183
536.27	0.182
536.72	0.183
537.17	0.181
537.63	0.184
538.08	0.183
538.54	0.182
538.99	0.184
539.44	0.182
539.90	0.180
540.35	0.181
540.80	0.182
541.26	0.180
541.71	0.178
542.16	0.179
542.62	0.180
543.07	0.178
543.52	0.177
543.98	0.179
544.43	0.179
544.88	0.180
545.34	0.179
545.79	0.178
546.24	0.179
546.69	0.177
547.15	0.181
547.60	0.179
548.05	0.181
548.51	0.178
548.96	0.178
549.41	0.179
549.86	0.176
550.32	0.181
550.77	0.179
551.22	0.178
551.68	0.179
552.13	0.177
552.58	0.176
553.03	0.178
553.49	0.178
553.94	0.180
554.39	0.180
554.84	0.178
555.30	0.177
555.75	0.177
556.20	0.176
556.65	0.178
557.11	0.177
557.56	0.178
558.01	0.178
558.46	0.179
558.92	0.181
559.37	0.179
559.82	0.177
560.27	0.178
560.72	0.178
561.18	0.179
561.63	0.178
562.08	0.179
562.53	0.180
562.99	0.179
563.44	0.178
563.89	0.178
564.34	0.178
564.79	0.178
565.25	0.180
565.70	0.181
566.15	0.179
566.60	0.178
567.05	0.180
567.50	0.180
567.96	0.180
568.41	0.181
568.86	0.180
569.31	0.180
569.76	0.178
570.21	0.179
570.67	0.180
571.12	0.179
571.57	0.180
572.02	0.182
572.47	0.180
572.92	0.180
573.37	0.179
573.83	0.180
574.28	0.179
574.73	0.179
575.18	0.182
575.63	0.181
576.08	0.181
576.53	0.183
576.98	0.182
577.44	0.182
577.89	0.182
578.34	0.183
578.79	0.181
579.24	0.183
579.69	0.184
580.14	0.184
580.59	0.185
581.04	0.184
581.49	0.183
581.95	0.183
582.40	0.185
582.85	0.186
583.30	0.185
583.75	0.186
584.20	0.188
584.65	0.186
585.10	0.187
585.55	0.189
586.00	0.188
586.45	0.190
586.90	0.188
587.35	0.191
587.80	0.191
588.25	0.192
588.71	0.191
589.16	0.193
589.61	0.193
590.06	0.193
590.51	0.195
590.96	0.193
591.41	0.196
591.86	0.196
592.31	0.198
592.76	0.195
593.21	0.195
593.66	0.196
594.11	0.198
594.56	0.199
595.01	0.200
595.46	0.200
595.91	0.202
596.36	0.203
596.81	0.203
597.26	0.205
597.71	0.206
598.16	0.206
598.61	0.205
599.06	0.208
599.51	0.209
599.96	0.209
600.41	0.210
600.86	0.208
601.31	0.209
601.76	0.210
602.21	0.212
602.65	0.210
603.10	0.215
603.55	0.216
604.00	0.214
604.45	0.215
604.90	0.216
605.35	0.216
605.80	0.216
606.25	0.219
606.70	0.220
607.15	0.219
607.60	0.218
608.05	0.218
608.50	0.220
608.95	0.222
609.39	0.221
609.84	0.223
610.29	0.225
610.74	0.223
611.19	0.222
611.64	0.224
612.09	0.224
612.54	0.223
612.99	0.224
613.44	0.225
613.88	0.222
614.33	0.224
614.78	0.224
615.23	0.226
615.68	0.225
616.13	0.225
616.58	0.226
617.03	0.226
617.47	0.226
617.92	0.226
618.37	0.227
618.82	0.225
619.27	0.227
619.72	0.228
620.17	0.225
620.61	0.227
621.06	0.227
621.51	0.226
621.96	0.226
622.41	0.227
622.86	0.227
623.30	0.229
623.75	0.228
624.20	0.228
624.65	0.228
625.10	0.229
625.54	0.229
625.99	0.228
626.44	0.231
626.89	0.229
627.34	0.229
627.78	0.228
628.23	0.231
628.68	0.228
629.13	0.230
629.58	0.228
630.02	0.232
630.47	0.233
630.92	0.235
631.37	0.234
631.81	0.233
632.26	0.238
632.71	0.235
633.16	0.236
633.61	0.236
634.05	0.239
634.50	0.238
634.95	0.240
635.40	0.240
635.84	0.240
636.29	0.241
636.74	0.243
637.18	0.243
637.63	0.245
638.08	0.247
638.53	0.247
638.97	0.248
639.42	0.251
639.87	0.249
640.32	0.251
640.76	0.251
641.21	0.252
641.66	0.252
642.10	0.256
642.55	0.256
643.00	0.259
643.44	0.260
643.89	0.261
644.34	0.261
644.79	0.263
645.23	0.260
645.68	0.266
646.13	0.268
646.57	0.268
647.02	0.271
647.47	0.272
647.91	0.272
648.36	0.276
648.81	0.277
649.25	0.277
649.70	0.280
650.15	0.277
650.59	0.280
651.04	0.282
651.48	0.283
651.93	0.284
652.38	0.284
652.82	0.287
653.27	0.286
653.72	0.288
654.16	0.290
654.61	0.289
655.06	0.293
655.50	0.291
655.95	0.292
656.39	0.292
656.84	0.295
657.29	0.296
657.73	0.297
658.18	0.299
658.62	0.300
659.07	0.299
659.52	0.298
659.96	0.300
660.41	0.301
660.85	0.302
661.30	0.301
661.74	0.304
662.19	0.300
662.64	0.303
663.08	0.303
663.53	0.304
663.97	0.303
664.42	0.303
664.86	0.304
665.31	0.304
665.75	0.302
666.20	0.303
666.65	0.304
667.09	0.301
667.54	0.299
667.98	0.297
668.43	0.295
668.87	0.297
669.32	0.297
669.76	0.294
670.21	0.290
670.65	0.290
671.10	0.289
671.54	0.286
671.99	0.286
672.43	0.280
672.88	0.279
673.32	0.278
673.77	0.275
674.21	0.272
674.66	0.268
675.10	0.264
675.55	0.261
675.99	0.258
676.44	0.252
676.88	0.250
677.33	0.246
677.77	0.240
678.22	0.238
678.66	0.236
679.11	0.233
679.55	0.227
679.99	0.225
680.44	0.221
680.88	0.218
681.33	0.212
681.77	0.211
682.22	0.205
682.66	0.202
683.11	0.197
683.55	0.194
683.99	0.190
684.44	0.191
684.88	0.184
685.33	0.183
685.77	0.178
686.21	0.173
686.66	0.170
687.10	0.165
687.55	0.165
687.99	0.163
688.44	0.161
688.88	0.158
689.32	0.154
689.77	0.154
690.21	0.152
690.65	0.146
691.10	0.146
691.54	0.146
691.99	0.142
692.43	0.138
692.87	0.139
693.32	0.137
693.76	0.136
694.20	0.136
694.65	0.131
695.09	0.130
695.53	0.129
695.98	0.128
696.42	0.126
696.86	0.124
697.31	0.124
697.75	0.124
698.19	0.121
698.64	0.121
699.08	0.120
699.52	0.119
699.97	0.119
700.41	0.118
700.85	0.114
701.30	0.117
701.74	0.115
702.18	0.115
702.63	0.113
703.07	0.114
703.51	0.116
703.96	0.111
704.40	0.110
704.84	0.113
705.28	0.110
705.73	0.110
706.17	0.110
706.61	0.110
707.06	0.110
707.50	0.108
707.94	0.108
708.38	0.106
708.83	0.108
709.27	0.104
709.71	0.106
710.15	0.108
710.60	0.107
711.04	0.105
711.48	0.104
711.92	0.104
712.37	0.107
712.81	0.105
713.25	0.106
713.69	0.108
714.13	0.104
714.58	0.104
715.02	0.105
715.46	0.103
715.90	0.104
716.35	0.102
716.79	0.105
717.23	0.105
717.67	0.105
718.11	0.105
718.56	0.104
719.00	0.102
719.44	0.102
719.88	0.103
720.32	0.103
720.76	0.105
721.21	0.103
721.65	0.102
722.09	0.103
722.53	0.104
722.97	0.102
723.41	0.102
723.86	0.106
724.30	0.101
724.74	0.102
725.18	0.102
725.62	0.101
726.06	0.099
726.50	0.103
726.95	0.101
727.39	0.104
727.83	0.102
728.27	0.102
728.71	0.099
729.15	0.103
729.59	0.105
730.03	0.102
730.48	0.104
730.92	0.102
731.36	0.101
731.80	0.103
732.24	0.100
732.68	0.104
733.12	0.105
733.56	0.101
734.00	0.105
734.44	0.103
734.89	0.101
735.33	0.104
735.77	0.103
736.21	0.104
736.65	0.102
737.09	0.101
737.53	0.102
737.97	0.105
738.41	0.100
738.85	0.106
739.29	0.103
739.73	0.102
740.17	0.103
740.61	0.103
741.05	0.103
741.49	0.102
741.93	0.100
742.37	0.101
742.81	0.104
743.26	0.100
743.70	0.100
744.14	0.101
744.58	0.103
745.02	0.102
745.46	0.100
745.90	0.101
746.34	0.104
746.78	0.101
747.22	0.101
747.66	0.101
748.10	0.103
748.54	0.102
748.98	0.102
749.42	0.103
749.86	0.102
750.29	0.100
750.73	0.099
751.17	0.100
751.61	0.101
752.05	0.097
752.49	0.100
752.93	0.095
753.37	0.100
753.81	0.103
754.25	0.097
754.69	0.101
755.13	0.099
755.57	0.100
756.01	0.098
756.45	0.097
756.89	0.096
757.33	0.103
757.77	0.098
758.21	0.098
758.64	0.100
759.08	0.094
759.52	0.099
759.96	0.096
760.40	0.098
760.84	0.098
761.28	0.094
761.72	0.096
762.16	0.100
762.60	0.099
763.03	0.095
763.47	0.097
763.91	0.096
764.35	0.096
764.79	0.095
765.23	0.099
765.67	0.097
766.11	0.096
766.54	0.099
766.98	0.097
767.42	0.095
767.86	0.099
768.30	0.097
768.74	0.095
769.17	0.096
769.61	0.096
770.05	0.101
770.49	0.100
770.93	0.098
771.37	0.095
771.80	0.096
772.24	0.095
772.68	0.097
773.12	0.097
773.56	0.095
774.00	0.098
774.43	0.095
774.87	0.093
775.31	0.095
775.75	0.096
776.19	0.095
776.62	0.095
777.06	0.093
777.50	0.096
777.94	0.095
778.37	0.094
778.81	0.095
779.25	0.097
779.69	0.092
780.13	0.098
780.56	0.096
781.00	0.095
781.44	0.095
781.88	0.092
782.31	0.092
782.75	0.092
783.19	0.093
783.63	0.092
784.06	0.093
784.50	0.094
784.94	0.095
785.37	0.092
785.81	0.094
786.25	0.092
786.69	0.092
787.12	0.092
787.56	0.090
788.00	0.092
788.43	0.088
788.87	0.092
789.31	0.091
789.75	0.093
790.18	0.090
790.62	0.092
791.06	0.095
791.49	0.092
791.93	0.095
792.37	0.093
792.80	0.090
793.24	0.086
793.68	0.093
794.11	0.091
794.55	0.091
794.99	0.091
795.42	0.089
795.86	0.087
796.30	0.087
796.73	0.089
797.17	0.094
797.61	0.087
798.04	0.090
798.48	0.090
798.91	0.086
799.35	0.090
799.79	0.088
800.22	0.091
800.66	0.088
801.10	0.090
801.53	0.092
801.97	0.092
802.40	0.089
802.84	0.090
803.28	0.091
803.71	0.092
804.15	0.091
804.58	0.087
805.02	0.087
805.46	0.090
805.89	0.091
806.33	0.092
806.76	0.091
807.20	0.086
807.63	0.091
808.07	0.089
808.51	0.087
808.94	0.092
809.38	0.092
809.81	0.087
810.25	0.091
810.68	0.088
811.12	0.087
811.55	0.090
811.99	0.089
812.42	0.087
812.86	0.088
813.29	0.088
813.73	0.087
814.17	0.092
814.60	0.085
815.04	0.090
815.47	0.084
815.91	0.093
816.34	0.084
816.78	0.084
817.21	0.085
817.65	0.091
818.08	0.086
818.52	0.085
818.95	0.085
819.39	0.085
819.82	0.081
820.25	0.085
820.69	0.084
821.12	0.089
821.56	0.082
821.99	0.086
822.43	0.086
822.86	0.083
823.30	0.087
823.73	0.084
824.17	0.087
824.60	0.079
825.04	0.091
825.47	0.091
825.90	0.085
826.34	0.086
826.77	0.087
827.21	0.092
827.64	0.088
828.08	0.094
828.51	0.091
828.94	0.090
829.38	0.085
829.81	0.089
830.25	0.088
830.68	0.093
831.11	0.092
831.55	0.091
831.98	0.092
832.42	0.090
832.85	0.095
833.28	0.091
833.72	0.090
834.15	0.089
834.58	0.090
835.02	0.098
835.45	0.093
835.88	0.092
836.32	0.086
836.75	0.096
837.19	0.089
837.62	0.089
838.05	0.093
838.49	0.094
838.92	0.095
839.35	0.091
839.79	0.099
840.22	0.096
840.65	0.091
841.09	0.092
841.52	0.097
841.95	0.094
842.39	0.093
842.82	0.099
843.25	0.094
843.68	0.094
844.12	0.098
844.55	0.093
844.98	0.099
845.42	0.093
845.85	0.093
846.28	0.089
846.71	0.095
847.15	0.092
847.58	0.096
848.01	0.099
848.45	0.092
848.88	0.096
849.31	0.091
849.74	0.100
850.18	0.094
850.61	0.092
851.04	0.098
851.47	0.093
851.91	0.100
852.34	0.097
852.77	0.093
853.20	0.095
853.64	0.092
854.07	0.093
854.50	0.098
854.93	0.094
855.36	0.093
855.80	0.094
856.23	0.092
856.66	0.091
857.09	0.091
857.52	0.090
857.96	0.087
858.39	0.102
858.82	0.096
859.25	0.095
859.68	0.091
860.12	0.094
860.55	0.098
860.98	0.107
861.41	0.099
861.84	0.102
862.27	0.092
862.71	0.097
863.14	0.096
863.57	0.101
864.00	0.098
864.43	0.095
864.86	0.095
865.30	0.099
865.73	0.103
866.16	0.092
866.59	0.093
867.02	0.096
867.45	0.088
867.88	0.092
868.31	0.098
868.75	0.100
869.18	0.097
869.61	0.103
870.04	0.100
870.47	0.096
870.90	0.090
871.33	0.100
871.76	0.096
872.19	0.093
872.62	0.102
873.06	0.098
873.49	0.097
873.92	0.096
874.35	0.096
874.78	0.100
875.21	0.093
875.64	0.095
876.07	0.100
876.50	0.097
876.93	0.097
877.36	0.098
877.79	0.096
878.22	0.097
878.65	0.096
879.08	0.098
879.51	0.102
879.94	0.094
880.37	0.103
880.80	0.098
881.23	0.092
881.67	0.093
882.10	0.098
882.53	0.096
882.96	0.101
883.39	0.097
883.82	0.108
884.25	0.105
884.68	0.100
885.11	0.098
885.54	0.097
885.97	0.095
886.39	0.097
886.82	0.106
887.25	0.102
887.68	0.099
888.11	0.102
888.54	0.102
888.97	0.102
889.40	0.096
889.83	0.097
890.26	0.109
890.69	0.099
891.12	0.099
891.55	0.102
891.98	0.096
892.41	0.103
892.84	0.102
893.27	0.098
893.70	0.097
894.13	0.100
894.56	0.100
894.98	0.104
895.41	0.103
895.84	0.101
896.27	0.102
896.70	0.104
897.13	0.102
897.56	0.107
897.99	0.108
898.42	0.103
898.85	0.102
899.27	0.104
899.70	0.103
900.13	0.101
900.56	0.098
900.99	0.101
901.42	0.104
901.85	0.100
902.28	0.100
902.70	0.106
903.13	0.099
903.56	0.103
903.99	0.106
904.42	0.105
904.85	0.102
905.27	0.106
905.70	0.104
906.13	0.103
906.56	0.108
906.99	0.107
907.42	0.109
907.84	0.105
908.27	0.107
908.70	0.105
909.13	0.105
909.56	0.104
909.98	0.102
910.41	0.104
910.84	0.103
911.27	0.103
911.70	0.100
912.12	0.103
912.55	0.101
912.98	0.102
913.41	0.103
913.84	0.101
914.26	0.103
914.69	0.109
915.12	0.106
915.55	0.103
915.97	0.105
916.40	0.109
916.83	0.102
917.26	0.104
917.68	0.101
918.11	0.101
918.54	0.105
918.97	0.105
919.39	0.104
919.82	0.107
920.25	0.108
920.67	0.109
921.10	0.110
921.53	0.110
921.96	0.113
922.38	0.114
922.81	0.107
923.24	0.104
923.66	0.109
924.09	0.113
924.52	0.111
924.94	0.112
925.37	0.109
925.80	0.114
926.22	0.113
926.65	0.115
927.08	0.115
927.50	0.115
927.93	0.115
928.36	0.119
928.78	0.117
929.21	0.119
929.64	0.115
930.06	0.121
930.49	0.123
930.92	0.126
931.34	0.125
931.77	0.124
932.20	0.127
932.62	0.128
933.05	0.128
933.47	0.133
933.90	0.127
934.33	0.128
934.75	0.128
935.18	0.137
935.61	0.134
936.03	0.132
936.46	0.136
936.88	0.136
937.31	0.135
937.73	0.141
938.16	0.137
938.59	0.144
939.01	0.141
939.44	0.141
939.86	0.154
940.29	0.150
940.71	0.148
941.14	0.162
941.57	0.153
941.99	0.164
942.42	0.168
942.84	0.160
943.27	0.160
943.69	0.166
944.12	0.174
944.54	0.174
944.97	0.172
945.39	0.170
945.82	0.177
946.24	0.165
946.67	0.178
947.09	0.183
947.52	0.179
947.94	0.185
948.37	0.179
948.79	0.195
949.22	0.195
949.64	0.204
950.07	0.200
950.49	0.205
950.92	0.212
951.34	0.204
951.77	0.210
952.19	0.205
952.62	0.220
953.04	0.209
953.47	0.216
953.89	0.225
954.32	0.220
954.74	0.223
955.17	0.232
955.59	0.233
956.01	0.230
956.44	0.236
956.86	0.238
957.29	0.249
957.71	0.248
958.14	0.250
958.56	0.248
958.98	0.247
959.41	0.250
959.83	0.248
960.26	0.254
960.68	0.259
961.10	0.260
961.53	0.258
961.95	0.259
962.38	0.264
962.80	0.265
963.22	0.268
963.65	0.259
964.07	0.266
964.50	0.264
964.92	0.270
965.34	0.261
965.77	0.266
966.19	0.269
966.61	0.270
967.04	0.269
967.46	0.270
967.88	0.268
968.31	0.271
968.73	0.269
969.15	0.277
969.58	0.269
970.00	0.270
970.42	0.272
970.85	0.266
971.27	0.271
971.69	0.278
972.12	0.272
972.54	0.282
972.96	0.276
973.39	0.275
973.81	0.283
974.23	0.280
974.65	0.274
975.08	0.279
975.50	0.274
975.92	0.277
976.35	0.278
976.77	0.276
977.19	0.274
977.61	0.271
978.04	0.280
978.46	0.280
978.88	0.279
979.30	0.280
979.73	0.281
980.15	0.281
980.57	0.274
980.99	0.285
981.42	0.268
981.84	0.276
982.26	0.270
982.68	0.269
983.11	0.268
983.53	0.268
983.95	0.271
984.37	0.268
984.79	0.272
985.22	0.277
985.64	0.276
986.06	0.265
986.48	0.276
986.90	0.273
987.33	0.276
987.75	0.266
988.17	0.264
988.59	0.268
989.01	0.262
989.43	0.267
989.86	0.268
990.28	0.273
990.70	0.266
991.12	0.269
991.54	0.268
991.96	0.263
992.39	0.264
992.81	0.259
993.23	0.253
993.65	0.266
994.07	0.260
994.49	0.253
994.91	0.268
995.34	0.258
995.76	0.247
996.18	0.254
996.60	0.255
997.02	0.250
997.44	0.246
997.86	0.249
998.28	0.262
998.70	0.253
999.12	0.248
999.55	0.252
999.97	0.255
1000.39	0.252
1000.81	0.254
1001.23	0.248
1001.65	0.248
1002.07	0.238
1002.49	0.247
1002.91	0.244
1003.33	0.249
1003.75	0.244
1004.17	0.245
1004.59	0.247
1005.01	0.234
1005.43	0.248
1005.85	0.238
1006.28	0.245
1006.70	0.238
1007.12	0.238
1007.54	0.232
1007.96	0.229
1008.38	0.231
1008.80	0.225
1009.22	0.231
1009.64	0.233
1010.06	0.227
1010.48	0.229
1010.90	0.232
1011.32	0.226
1011.74	0.229
1012.16	0.227
1012.58	0.233
1013.00	0.219
1013.42	0.236
1013.84	0.220
1014.26	0.216
1014.67	0.226
1015.09	0.212
1015.51	0.225
1015.93	0.210
1016.35	0.216
1016.77	0.220
1017.19	0.206
1017.61	0.206
1018.03	0.219
1018.45	0.207
1018.87	0.204
1019.29	0.210
1019.71	0.205
1020.13	0.217
1020.55	0.205
1020.97	0.204
1021.38	0.201
1021.80	0.193
1022.22	0.212
1022.64	0.198
1023.06	0.187
1023.48	0.207
1023.90	0.205
1024.32	0.193
1024.74	0.196
1025.15	0.191
1025.57	0.191
1025.99	0.192
1026.41	0.187
1026.83	0.180
1027.25	0.193
1027.67	0.182
1028.08	0.180
1028.50	0.208
1028.92	0.199
1029.34	0.178
1029.76	0.181
1030.18	0.183
1030.60	0.177
1031.01	0.167
1031.43	0.175
1031.85	0.186
1032.27	0.176
1032.69	0.172
1033.10	0.178
1033.52	0.200
1033.94	0.171
1034.36	0.177
1034.78	0.175
1035.19	0.172
1035.61	0.163
1036.03	0.164
1036.45	0.157
1036.87	0.150
1037.28	0.146
1037.70	0.169
1038.12	0.178
1038.54	0.153
1038.95	0.157
1039.37	0.152
1039.79	0.166
1040.21	0.177
1040.62	0.158
1041.04	0.149
1041.46	0.150
1041.88	0.142
1042.29	0.176
1042.71	0.147
1043.13	0.145
1043.55	0.141
1043.96	0.167
1044.38	0.151
1044.80	0.144
1045.21	0.155
1045.63	0.144
1046.05	0.157
1046.47	0.167
1046.88	0.148
1047.30	0.174
1047.72	0.141
1048.13	0.157
1048.55	0.167
1048.97	0.136
1049.38	0.163
1049.80	0.153
1050.22	0.140
1050.63	0.150
1051.05	0.125
1051.47	0.175
1051.88	0.180
1052.30	0.134
1052.72	0.167
1053.13	0.145
1053.55	0.148
1053.97	0.143
1054.38	0.169
1054.80	0.185
1055.21	0.142
1055.63	0.160
1056.05	0.147
1056.46	0.218
1056.88	0.134
1057.29	0.170
1057.71	0.151
1058.13	0.166
1058.54	0.172
1058.96	0.197
1059.37	0.186
1059.79	0.168
1060.21	0.144
1060.62	0.171
1061.04	0.165
1061.45	0.123
1061.87	0.167
1062.28	0.099
1062.70	0.135
1063.12	0.190
1063.53	0.183
1063.95	0.148
1064.36	0.141
1064.78	0.182
1065.19	0.143
1065.61	0.183
1066.02	0.194
1066.44	0.219
1066.85	0.270
1067.27	0.170
1067.68	0.205
1068.10	0.186
1068.51	0.178
1068.93	0.297
1069.35	0.323
1069.76	0.267
1070.17	0.264
1070.59	0.144
1071.00	0.263
1071.42	0.219
1071.83	0.222
1072.25	0.372
1072.66	0.352
1073.08	0.366
1073.49	0.280
1073.91	0.252
1074.32	0.302
1074.74	0.205
1075.15	0.276
1075.57	0.466
1075.98	0.323
1076.40	0.421
1076.81	0.320
1077.22	0.273
1077.64	0.382
1078.05	0.426
1078.47	0.365
1078.88	0.461
1079.30	0.673
1079.71	0.299
1080.12	0.596
1080.54	0.396
1080.95	0.886
1081.37	0.815
1081.78	0.407
1082.19	-0.000
1082.61	-0.000
1083.02	0.567
1083.44	0.460
1083.85	0.471
1084.26	0.321
1084.68	0.464
1085.09	0.552
1085.50	0.301
1085.92	1.114
1086.33	0.984
1086.74	0.750
1087.16	-0.000
1087.57	-0.000
1087.98	-0.000
1088.40	0.755
1088.81	0.201
1089.22	0.696
1089.64	-0.000
1090.05	0.390
1090.46	-0.000
1090.88	-0.000
1091.29	0.407
1091.70	-0.000
1092.12	-0.000
1092.53	-0.000
1092.94	0.572
1093.36	0.246
1093.77	1.498
1094.18	0.828
1094.59	0.678
1095.01	0.651
1095.42	0.643
1095.83	-0.000
1096.25	-0.000
1096.66	0.391
1097.07	0.489
1097.48	0.465
1097.90	1.168
1098.31	0.607
1098.72	-0.000
1099.13	0.280
>>>>>End Processed Spectral Data<<<<<
