SpectraSuite Data File
++++++++++++++++++++++++++++++++++++
Date: Mon Jul 10 13:44:17 CEST 2017
User: IPCE
Dark Spectrum Present: Yes
Reference Spectrum Present: Yes
Number of Sampled Component Spectra: 1
Spectrometers: HR+C0708
Integration Time (usec): 1000 (HR+C0708)
Spectra Averaged: 10 (HR+C0708)
Boxcar Smoothing: 0 (HR+C0708)
Correct for Electrical Dark: No (HR+C0708)
Strobe/Lamp Enabled: No (HR+C0708)
Correct for Detector Non-linearity: No (HR+C0708)
Correct for Stray Light: No (HR+C0708)
Number of Pixels in Processed Spectrum: 2048
>>>>>Begin Processed Spectral Data<<<<<
188.76	0.447
189.23	-0.000
189.70	-0.000
190.17	0.382
190.64	-0.000
191.12	-0.000
191.59	-0.000
192.06	0.313
192.53	-0.016
193.01	-0.000
193.48	0.759
193.95	0.799
194.42	1.071
194.90	-0.000
195.37	0.503
195.84	0.312
196.31	-0.000
196.78	0.704
197.26	0.005
197.73	0.845
198.20	-0.000
198.67	1.643
199.14	0.431
199.62	-0.000
200.09	-0.000
200.56	0.676
201.03	0.654
201.50	0.743
201.97	0.694
202.45	0.470
202.92	0.719
203.39	0.875
203.86	0.628
204.33	0.508
204.80	0.821
205.28	1.382
205.75	0.612
206.22	0.497
206.69	0.598
207.16	0.294
207.63	0.432
208.11	0.369
208.58	0.401
209.05	0.366
209.52	0.467
209.99	0.495
210.46	0.632
210.93	0.495
211.41	0.424
211.88	0.654
212.35	0.483
212.82	0.565
213.29	0.593
213.76	0.719
214.23	0.493
214.70	0.466
215.18	0.650
215.65	0.612
216.12	0.423
216.59	0.485
217.06	0.551
217.53	0.738
218.00	0.435
218.47	0.405
218.94	0.675
219.41	0.392
219.89	0.638
220.36	0.543
220.83	0.575
221.30	0.547
221.77	0.538
222.24	0.959
222.71	0.941
223.18	0.488
223.65	0.719
224.12	0.821
224.59	0.671
225.06	0.779
225.54	1.428
226.01	1.034
226.48	0.784
226.95	1.391
227.42	1.115
227.89	0.922
228.36	1.232
228.83	1.226
229.30	1.221
229.77	1.147
230.24	1.566
230.71	1.458
231.18	1.481
231.65	1.510
232.12	1.649
232.59	1.671
233.06	1.590
233.53	1.590
234.00	1.818
234.47	1.978
234.94	1.826
235.41	1.586
235.88	1.944
236.35	1.695
236.82	1.873
237.29	2.314
237.76	2.160
238.23	2.186
238.70	2.277
239.17	2.040
239.64	2.027
240.11	2.244
240.58	2.102
241.05	2.596
241.52	2.131
241.99	2.159
242.46	2.882
242.93	2.748
243.40	2.680
243.87	2.418
244.34	2.916
244.81	2.355
245.28	2.335
245.75	2.347
246.22	2.513
246.69	2.446
247.16	2.586
247.63	2.707
248.10	2.718
248.57	2.524
249.04	2.523
249.51	2.774
249.98	2.581
250.45	2.882
250.92	2.514
251.39	3.031
251.85	2.445
252.32	2.663
252.79	3.457
253.26	2.527
253.73	2.444
254.20	2.566
254.67	2.549
255.14	2.456
255.61	2.476
256.08	2.737
256.55	2.576
257.02	2.599
257.49	2.683
257.95	2.676
258.42	2.655
258.89	2.548
259.36	2.945
259.83	2.830
260.30	2.641
260.77	2.694
261.24	2.750
261.71	2.807
262.17	2.656
262.64	2.627
263.11	2.803
263.58	2.911
264.05	2.610
264.52	2.622
264.99	2.998
265.46	2.593
265.92	2.593
266.39	2.809
266.86	2.789
267.33	2.743
267.80	2.620
268.27	2.674
268.74	2.724
269.20	2.768
269.67	2.625
270.14	2.680
270.61	2.657
271.08	2.831
271.55	2.973
272.01	2.742
272.48	2.749
272.95	2.742
273.42	3.037
273.89	2.688
274.36	2.939
274.82	2.774
275.29	2.720
275.76	2.734
276.23	2.778
276.70	2.542
277.16	2.694
277.63	2.612
278.10	2.831
278.57	2.979
279.04	2.634
279.50	2.409
279.97	2.720
280.44	2.528
280.91	2.782
281.38	2.684
281.84	2.615
282.31	2.721
282.78	2.695
283.25	2.506
283.72	2.780
284.18	2.739
284.65	2.708
285.12	2.571
285.59	2.917
286.05	2.516
286.52	2.637
286.99	2.630
287.46	2.599
287.92	2.624
288.39	2.495
288.86	2.726
289.33	2.536
289.79	2.706
290.26	2.494
290.73	2.473
291.20	2.521
291.66	2.520
292.13	2.625
292.60	2.511
293.07	2.675
293.53	2.675
294.00	2.612
294.47	2.626
294.93	2.516
295.40	2.584
295.87	2.428
296.34	2.677
296.80	2.557
297.27	2.788
297.74	2.572
298.20	2.577
298.67	2.595
299.14	2.570
299.60	2.529
300.07	2.435
300.54	2.697
301.01	2.433
301.47	2.492
301.94	2.534
302.41	2.618
302.87	2.440
303.34	2.465
303.81	2.320
304.27	2.375
304.74	2.339
305.21	2.311
305.67	2.440
306.14	2.330
306.61	2.333
307.07	2.672
307.54	2.404
308.01	2.419
308.47	2.450
308.94	2.575
309.40	2.388
309.87	2.316
310.34	2.281
310.80	2.444
311.27	2.356
311.74	2.285
312.20	2.358
312.67	2.449
313.13	2.438
313.60	2.336
314.07	2.512
314.53	2.416
315.00	2.363
315.47	2.359
315.93	2.390
316.40	2.292
316.86	2.397
317.33	2.428
317.80	2.343
318.26	2.364
318.73	2.361
319.19	2.422
319.66	2.253
320.13	2.421
320.59	2.219
321.06	2.252
321.52	2.262
321.99	2.202
322.45	2.253
322.92	2.234
323.39	2.220
323.85	2.245
324.32	2.242
324.78	2.158
325.25	2.234
325.71	2.166
326.18	2.140
326.64	2.105
327.11	2.053
327.58	2.186
328.04	2.059
328.51	1.984
328.97	2.016
329.44	1.964
329.90	1.937
330.37	1.950
330.83	1.875
331.30	1.908
331.76	1.834
332.23	1.814
332.69	1.801
333.16	1.731
333.62	1.706
334.09	1.672
334.56	1.612
335.02	1.547
335.49	1.521
335.95	1.452
336.42	1.397
336.88	1.351
337.35	1.297
337.81	1.271
338.28	1.205
338.74	1.155
339.20	1.120
339.67	1.076
340.13	1.018
340.60	0.976
341.06	0.928
341.53	0.883
341.99	0.841
342.46	0.797
342.92	0.764
343.39	0.728
343.85	0.695
344.32	0.667
344.78	0.638
345.25	0.611
345.71	0.578
346.17	0.550
346.64	0.520
347.10	0.488
347.57	0.461
348.03	0.435
348.50	0.411
348.96	0.391
349.43	0.374
349.89	0.351
350.35	0.335
350.82	0.321
351.28	0.301
351.75	0.289
352.21	0.279
352.67	0.265
353.14	0.253
353.60	0.245
354.07	0.233
354.53	0.221
355.00	0.218
355.46	0.212
355.92	0.208
356.39	0.198
356.85	0.193
357.31	0.191
357.78	0.182
358.24	0.179
358.71	0.177
359.17	0.170
359.63	0.170
360.10	0.164
360.56	0.164
361.03	0.159
361.49	0.157
361.95	0.156
362.42	0.157
362.88	0.153
363.34	0.155
363.81	0.150
364.27	0.154
364.73	0.148
365.20	0.146
365.66	0.145
366.12	0.144
366.59	0.141
367.05	0.141
367.51	0.144
367.98	0.141
368.44	0.138
368.90	0.137
369.37	0.138
369.83	0.138
370.29	0.134
370.76	0.134
371.22	0.136
371.68	0.132
372.15	0.133
372.61	0.133
373.07	0.131
373.54	0.130
374.00	0.131
374.46	0.131
374.92	0.128
375.39	0.129
375.85	0.129
376.31	0.129
376.78	0.127
377.24	0.128
377.70	0.125
378.16	0.125
378.63	0.125
379.09	0.125
379.55	0.126
380.01	0.123
380.48	0.123
380.94	0.123
381.40	0.124
381.87	0.122
382.33	0.124
382.79	0.125
383.25	0.119
383.72	0.124
384.18	0.118
384.64	0.122
385.10	0.120
385.56	0.115
386.03	0.115
386.49	0.120
386.95	0.118
387.41	0.119
387.88	0.118
388.34	0.116
388.80	0.117
389.26	0.114
389.72	0.115
390.19	0.114
390.65	0.113
391.11	0.114
391.57	0.114
392.04	0.114
392.50	0.115
392.96	0.114
393.42	0.113
393.88	0.113
394.34	0.111
394.81	0.112
395.27	0.113
395.73	0.110
396.19	0.111
396.65	0.114
397.12	0.108
397.58	0.111
398.04	0.112
398.50	0.110
398.96	0.110
399.42	0.109
399.89	0.110
400.35	0.107
400.81	0.107
401.27	0.103
401.73	0.107
402.19	0.104
402.65	0.104
403.12	0.102
403.58	0.102
404.04	0.102
404.50	0.103
404.96	0.101
405.42	0.100
405.88	0.100
406.34	0.100
406.81	0.101
407.27	0.098
407.73	0.099
408.19	0.098
408.65	0.098
409.11	0.097
409.57	0.096
410.03	0.097
410.49	0.094
410.96	0.096
411.42	0.095
411.88	0.092
412.34	0.093
412.80	0.096
413.26	0.096
413.72	0.094
414.18	0.093
414.64	0.090
415.10	0.091
415.56	0.094
416.02	0.091
416.48	0.095
416.95	0.088
417.41	0.088
417.87	0.089
418.33	0.088
418.79	0.089
419.25	0.086
419.71	0.089
420.17	0.092
420.63	0.088
421.09	0.092
421.55	0.090
422.01	0.088
422.47	0.088
422.93	0.088
423.39	0.088
423.85	0.087
424.31	0.091
424.77	0.087
425.23	0.088
425.69	0.086
426.15	0.088
426.61	0.085
427.07	0.085
427.53	0.085
427.99	0.085
428.45	0.084
428.91	0.083
429.37	0.086
429.83	0.086
430.29	0.086
430.75	0.088
431.21	0.086
431.67	0.084
432.13	0.083
432.59	0.082
433.05	0.082
433.51	0.083
433.97	0.080
434.43	0.085
434.89	0.082
435.35	0.079
435.81	0.080
436.27	0.080
436.73	0.080
437.19	0.082
437.65	0.085
438.11	0.083
438.57	0.080
439.03	0.078
439.48	0.083
439.94	0.081
440.40	0.081
440.86	0.081
441.32	0.079
441.78	0.079
442.24	0.079
442.70	0.079
443.16	0.079
443.62	0.080
444.08	0.079
444.54	0.078
444.99	0.079
445.45	0.076
445.91	0.075
446.37	0.077
446.83	0.075
447.29	0.076
447.75	0.076
448.21	0.075
448.67	0.076
449.12	0.074
449.58	0.076
450.04	0.079
450.50	0.075
450.96	0.075
451.42	0.076
451.88	0.077
452.34	0.073
452.79	0.073
453.25	0.077
453.71	0.075
454.17	0.075
454.63	0.075
455.09	0.076
455.55	0.073
456.00	0.075
456.46	0.074
456.92	0.075
457.38	0.072
457.84	0.075
458.30	0.072
458.75	0.074
459.21	0.074
459.67	0.076
460.13	0.071
460.59	0.075
461.04	0.077
461.50	0.077
461.96	0.075
462.42	0.076
462.88	0.075
463.33	0.073
463.79	0.073
464.25	0.074
464.71	0.074
465.17	0.074
465.62	0.073
466.08	0.077
466.54	0.074
467.00	0.076
467.46	0.076
467.91	0.073
468.37	0.073
468.83	0.075
469.29	0.075
469.74	0.074
470.20	0.075
470.66	0.074
471.12	0.078
471.57	0.075
472.03	0.075
472.49	0.077
472.95	0.076
473.40	0.075
473.86	0.074
474.32	0.075
474.78	0.073
475.23	0.072
475.69	0.074
476.15	0.074
476.60	0.074
477.06	0.076
477.52	0.074
477.98	0.075
478.43	0.074
478.89	0.072
479.35	0.074
479.80	0.075
480.26	0.075
480.72	0.076
481.18	0.076
481.63	0.075
482.09	0.073
482.55	0.077
483.00	0.074
483.46	0.075
483.92	0.075
484.37	0.078
484.83	0.074
485.29	0.075
485.74	0.072
486.20	0.077
486.66	0.075
487.11	0.076
487.57	0.075
488.03	0.075
488.48	0.075
488.94	0.075
489.40	0.076
489.85	0.073
490.31	0.075
490.77	0.074
491.22	0.075
491.68	0.078
492.13	0.076
492.59	0.077
493.05	0.075
493.50	0.073
493.96	0.075
494.42	0.076
494.87	0.074
495.33	0.076
495.78	0.076
496.24	0.076
496.70	0.075
497.15	0.076
497.61	0.074
498.06	0.074
498.52	0.074
498.98	0.075
499.43	0.076
499.89	0.074
500.34	0.074
500.80	0.076
501.25	0.075
501.71	0.074
502.17	0.074
502.62	0.075
503.08	0.073
503.53	0.074
503.99	0.071
504.44	0.074
504.90	0.074
505.36	0.071
505.81	0.073
506.27	0.075
506.72	0.074
507.18	0.074
507.63	0.072
508.09	0.075
508.54	0.072
509.00	0.072
509.45	0.073
509.91	0.073
510.36	0.070
510.82	0.074
511.27	0.073
511.73	0.074
512.19	0.071
512.64	0.073
513.10	0.072
513.55	0.072
514.01	0.071
514.46	0.071
514.92	0.071
515.37	0.070
515.83	0.073
516.28	0.073
516.73	0.071
517.19	0.068
517.64	0.072
518.10	0.073
518.55	0.069
519.01	0.071
519.46	0.072
519.92	0.070
520.37	0.070
520.83	0.074
521.28	0.072
521.74	0.071
522.19	0.067
522.65	0.071
523.10	0.071
523.55	0.071
524.01	0.070
524.46	0.072
524.92	0.072
525.37	0.072
525.83	0.071
526.28	0.069
526.73	0.071
527.19	0.072
527.64	0.072
528.10	0.072
528.55	0.072
529.01	0.072
529.46	0.072
529.91	0.073
530.37	0.072
530.82	0.071
531.28	0.074
531.73	0.073
532.18	0.073
532.64	0.072
533.09	0.072
533.54	0.071
534.00	0.071
534.45	0.076
534.91	0.074
535.36	0.075
535.81	0.072
536.27	0.075
536.72	0.076
537.17	0.075
537.63	0.078
538.08	0.079
538.54	0.076
538.99	0.078
539.44	0.078
539.90	0.076
540.35	0.079
540.80	0.081
541.26	0.078
541.71	0.079
542.16	0.079
542.62	0.082
543.07	0.079
543.52	0.079
543.98	0.079
544.43	0.081
544.88	0.082
545.34	0.082
545.79	0.083
546.24	0.083
546.69	0.081
547.15	0.085
547.60	0.084
548.05	0.085
548.51	0.085
548.96	0.087
549.41	0.086
549.86	0.087
550.32	0.090
550.77	0.088
551.22	0.091
551.68	0.091
552.13	0.090
552.58	0.092
553.03	0.092
553.49	0.094
553.94	0.094
554.39	0.094
554.84	0.093
555.30	0.096
555.75	0.096
556.20	0.096
556.65	0.098
557.11	0.099
557.56	0.100
558.01	0.100
558.46	0.102
558.92	0.105
559.37	0.101
559.82	0.103
560.27	0.104
560.72	0.106
561.18	0.106
561.63	0.106
562.08	0.108
562.53	0.107
562.99	0.111
563.44	0.110
563.89	0.110
564.34	0.111
564.79	0.113
565.25	0.112
565.70	0.115
566.15	0.116
566.60	0.114
567.05	0.118
567.50	0.119
567.96	0.118
568.41	0.121
568.86	0.124
569.31	0.123
569.76	0.121
570.21	0.124
570.67	0.125
571.12	0.125
571.57	0.127
572.02	0.130
572.47	0.127
572.92	0.129
573.37	0.132
573.83	0.132
574.28	0.132
574.73	0.134
575.18	0.136
575.63	0.136
576.08	0.139
576.53	0.139
576.98	0.143
577.44	0.144
577.89	0.145
578.34	0.147
578.79	0.149
579.24	0.148
579.69	0.149
580.14	0.152
580.59	0.154
581.04	0.154
581.49	0.157
581.95	0.157
582.40	0.161
582.85	0.161
583.30	0.164
583.75	0.167
584.20	0.171
584.65	0.169
585.10	0.172
585.55	0.176
586.00	0.177
586.45	0.178
586.90	0.181
587.35	0.184
587.80	0.186
588.25	0.188
588.71	0.189
589.16	0.193
589.61	0.196
590.06	0.199
590.51	0.203
590.96	0.201
591.41	0.206
591.86	0.207
592.31	0.212
592.76	0.212
593.21	0.214
593.66	0.220
594.11	0.220
594.56	0.227
595.01	0.229
595.46	0.230
595.91	0.235
596.36	0.236
596.81	0.239
597.26	0.244
597.71	0.246
598.16	0.247
598.61	0.251
599.06	0.254
599.51	0.256
599.96	0.259
600.41	0.261
600.86	0.266
601.31	0.268
601.76	0.270
602.21	0.273
602.65	0.274
603.10	0.280
603.55	0.283
604.00	0.285
604.45	0.288
604.90	0.290
605.35	0.294
605.80	0.295
606.25	0.297
606.70	0.301
607.15	0.303
607.60	0.303
608.05	0.306
608.50	0.308
608.95	0.313
609.39	0.312
609.84	0.316
610.29	0.320
610.74	0.319
611.19	0.321
611.64	0.322
612.09	0.322
612.54	0.324
612.99	0.327
613.44	0.329
613.88	0.328
614.33	0.329
614.78	0.329
615.23	0.329
615.68	0.331
616.13	0.334
616.58	0.336
617.03	0.335
617.47	0.337
617.92	0.336
618.37	0.337
618.82	0.338
619.27	0.340
619.72	0.340
620.17	0.340
620.61	0.343
621.06	0.340
621.51	0.344
621.96	0.343
622.41	0.346
622.86	0.346
623.30	0.348
623.75	0.346
624.20	0.348
624.65	0.350
625.10	0.350
625.54	0.350
625.99	0.352
626.44	0.356
626.89	0.354
627.34	0.355
627.78	0.357
628.23	0.358
628.68	0.358
629.13	0.363
629.58	0.362
630.02	0.367
630.47	0.367
630.92	0.370
631.37	0.372
631.81	0.373
632.26	0.375
632.71	0.378
633.16	0.381
633.61	0.385
634.05	0.386
634.50	0.389
634.95	0.394
635.40	0.398
635.84	0.398
636.29	0.401
636.74	0.405
637.18	0.407
637.63	0.410
638.08	0.415
638.53	0.422
638.97	0.423
639.42	0.429
639.87	0.429
640.32	0.434
640.76	0.437
641.21	0.443
641.66	0.447
642.10	0.455
642.55	0.458
643.00	0.460
643.44	0.469
643.89	0.472
644.34	0.475
644.79	0.482
645.23	0.485
645.68	0.490
646.13	0.496
646.57	0.500
647.02	0.507
647.47	0.512
647.91	0.518
648.36	0.521
648.81	0.525
649.25	0.528
649.70	0.535
650.15	0.540
650.59	0.547
651.04	0.550
651.48	0.555
651.93	0.556
652.38	0.564
652.82	0.568
653.27	0.570
653.72	0.581
654.16	0.583
654.61	0.590
655.06	0.593
655.50	0.595
655.95	0.598
656.39	0.601
656.84	0.606
657.29	0.612
657.73	0.614
658.18	0.620
658.62	0.621
659.07	0.623
659.52	0.627
659.96	0.630
660.41	0.634
660.85	0.634
661.30	0.638
661.74	0.642
662.19	0.644
662.64	0.646
663.08	0.646
663.53	0.654
663.97	0.650
664.42	0.652
664.86	0.654
665.31	0.653
665.75	0.651
666.20	0.657
666.65	0.652
667.09	0.651
667.54	0.649
667.98	0.649
668.43	0.645
668.87	0.642
669.32	0.638
669.76	0.634
670.21	0.626
670.65	0.628
671.10	0.622
671.54	0.612
671.99	0.607
672.43	0.600
672.88	0.593
673.32	0.586
673.77	0.576
674.21	0.569
674.66	0.556
675.10	0.549
675.55	0.535
675.99	0.524
676.44	0.511
676.88	0.502
677.33	0.492
677.77	0.482
678.22	0.470
678.66	0.456
679.11	0.442
679.55	0.431
679.99	0.421
680.44	0.409
680.88	0.398
681.33	0.385
681.77	0.370
682.22	0.359
682.66	0.346
683.11	0.335
683.55	0.323
683.99	0.311
684.44	0.306
684.88	0.290
685.33	0.282
685.77	0.271
686.21	0.261
686.66	0.248
687.10	0.239
687.55	0.231
687.99	0.223
688.44	0.213
688.88	0.206
689.32	0.199
689.77	0.192
690.21	0.183
690.65	0.173
691.10	0.168
691.54	0.162
691.99	0.155
692.43	0.149
692.87	0.146
693.32	0.139
693.76	0.135
694.20	0.132
694.65	0.123
695.09	0.119
695.53	0.115
695.98	0.111
696.42	0.106
696.86	0.102
697.31	0.100
697.75	0.097
698.19	0.093
698.64	0.091
699.08	0.087
699.52	0.085
699.97	0.080
700.41	0.078
700.85	0.075
701.30	0.072
701.74	0.072
702.18	0.068
702.63	0.067
703.07	0.065
703.51	0.065
703.96	0.063
704.40	0.060
704.84	0.061
705.28	0.058
705.73	0.058
706.17	0.054
706.61	0.056
707.06	0.054
707.50	0.052
707.94	0.049
708.38	0.049
708.83	0.050
709.27	0.044
709.71	0.046
710.15	0.047
710.60	0.045
711.04	0.045
711.48	0.045
711.92	0.042
712.37	0.045
712.81	0.042
713.25	0.042
713.69	0.044
714.13	0.041
714.58	0.041
715.02	0.041
715.46	0.036
715.90	0.038
716.35	0.039
716.79	0.038
717.23	0.039
717.67	0.039
718.11	0.039
718.56	0.039
719.00	0.037
719.44	0.037
719.88	0.037
720.32	0.037
720.76	0.038
721.21	0.037
721.65	0.034
722.09	0.037
722.53	0.037
722.97	0.038
723.41	0.037
723.86	0.037
724.30	0.037
724.74	0.035
725.18	0.035
725.62	0.034
726.06	0.034
726.50	0.037
726.95	0.037
727.39	0.037
727.83	0.036
728.27	0.034
728.71	0.034
729.15	0.035
729.59	0.039
730.03	0.038
730.48	0.037
730.92	0.037
731.36	0.037
731.80	0.036
732.24	0.035
732.68	0.037
733.12	0.040
733.56	0.038
734.00	0.040
734.44	0.038
734.89	0.036
735.33	0.038
735.77	0.040
736.21	0.039
736.65	0.038
737.09	0.039
737.53	0.038
737.97	0.040
738.41	0.037
738.85	0.040
739.29	0.038
739.73	0.038
740.17	0.038
740.61	0.039
741.05	0.038
741.49	0.039
741.93	0.037
742.37	0.038
742.81	0.036
743.26	0.036
743.70	0.038
744.14	0.036
744.58	0.039
745.02	0.037
745.46	0.037
745.90	0.038
746.34	0.039
746.78	0.038
747.22	0.038
747.66	0.038
748.10	0.037
748.54	0.039
748.98	0.036
749.42	0.039
749.86	0.038
750.29	0.036
750.73	0.037
751.17	0.037
751.61	0.040
752.05	0.039
752.49	0.040
752.93	0.035
753.37	0.040
753.81	0.037
754.25	0.036
754.69	0.038
755.13	0.037
755.57	0.037
756.01	0.034
756.45	0.036
756.89	0.036
757.33	0.040
757.77	0.035
758.21	0.037
758.64	0.038
759.08	0.034
759.52	0.037
759.96	0.035
760.40	0.035
760.84	0.034
761.28	0.035
761.72	0.035
762.16	0.037
762.60	0.038
763.03	0.034
763.47	0.037
763.91	0.035
764.35	0.032
764.79	0.037
765.23	0.035
765.67	0.035
766.11	0.034
766.54	0.038
766.98	0.037
767.42	0.035
767.86	0.036
768.30	0.038
768.74	0.036
769.17	0.038
769.61	0.037
770.05	0.037
770.49	0.038
770.93	0.038
771.37	0.032
771.80	0.035
772.24	0.034
772.68	0.038
773.12	0.037
773.56	0.037
774.00	0.035
774.43	0.033
774.87	0.035
775.31	0.035
775.75	0.036
776.19	0.035
776.62	0.038
777.06	0.037
777.50	0.036
777.94	0.035
778.37	0.037
778.81	0.036
779.25	0.038
779.69	0.034
780.13	0.040
780.56	0.038
781.00	0.035
781.44	0.037
781.88	0.036
782.31	0.035
782.75	0.034
783.19	0.036
783.63	0.032
784.06	0.035
784.50	0.035
784.94	0.036
785.37	0.032
785.81	0.036
786.25	0.034
786.69	0.037
787.12	0.034
787.56	0.030
788.00	0.036
788.43	0.032
788.87	0.037
789.31	0.033
789.75	0.036
790.18	0.036
790.62	0.036
791.06	0.035
791.49	0.034
791.93	0.035
792.37	0.035
792.80	0.032
793.24	0.027
793.68	0.035
794.11	0.033
794.55	0.034
794.99	0.035
795.42	0.032
795.86	0.030
796.30	0.036
796.73	0.033
797.17	0.037
797.61	0.034
798.04	0.033
798.48	0.031
798.91	0.031
799.35	0.036
799.79	0.033
800.22	0.035
800.66	0.035
801.10	0.037
801.53	0.034
801.97	0.036
802.40	0.035
802.84	0.034
803.28	0.035
803.71	0.036
804.15	0.034
804.58	0.032
805.02	0.032
805.46	0.036
805.89	0.034
806.33	0.031
806.76	0.033
807.20	0.034
807.63	0.040
808.07	0.034
808.51	0.033
808.94	0.036
809.38	0.034
809.81	0.031
810.25	0.035
810.68	0.036
811.12	0.033
811.55	0.033
811.99	0.034
812.42	0.034
812.86	0.030
813.29	0.034
813.73	0.032
814.17	0.036
814.60	0.031
815.04	0.033
815.47	0.031
815.91	0.034
816.34	0.032
816.78	0.031
817.21	0.030
817.65	0.033
818.08	0.035
818.52	0.034
818.95	0.035
819.39	0.033
819.82	0.033
820.25	0.036
820.69	0.033
821.12	0.033
821.56	0.034
821.99	0.034
822.43	0.033
822.86	0.033
823.30	0.035
823.73	0.031
824.17	0.031
824.60	0.032
825.04	0.039
825.47	0.034
825.90	0.030
826.34	0.035
826.77	0.036
827.21	0.039
827.64	0.037
828.08	0.038
828.51	0.037
828.94	0.041
829.38	0.040
829.81	0.039
830.25	0.034
830.68	0.038
831.11	0.040
831.55	0.040
831.98	0.040
832.42	0.039
832.85	0.045
833.28	0.042
833.72	0.041
834.15	0.041
834.58	0.043
835.02	0.045
835.45	0.044
835.88	0.047
836.32	0.037
836.75	0.042
837.19	0.035
837.62	0.041
838.05	0.040
838.49	0.042
838.92	0.042
839.35	0.038
839.79	0.043
840.22	0.043
840.65	0.041
841.09	0.042
841.52	0.043
841.95	0.042
842.39	0.042
842.82	0.046
843.25	0.044
843.68	0.044
844.12	0.041
844.55	0.043
844.98	0.045
845.42	0.044
845.85	0.039
846.28	0.039
846.71	0.045
847.15	0.046
847.58	0.044
848.01	0.045
848.45	0.043
848.88	0.047
849.31	0.043
849.74	0.046
850.18	0.041
850.61	0.042
851.04	0.047
851.47	0.044
851.91	0.051
852.34	0.040
852.77	0.039
853.20	0.044
853.64	0.047
854.07	0.042
854.50	0.050
854.93	0.046
855.36	0.041
855.80	0.050
856.23	0.047
856.66	0.049
857.09	0.042
857.52	0.038
857.96	0.041
858.39	0.047
858.82	0.052
859.25	0.048
859.68	0.047
860.12	0.045
860.55	0.046
860.98	0.058
861.41	0.049
861.84	0.046
862.27	0.043
862.71	0.047
863.14	0.047
863.57	0.051
864.00	0.051
864.43	0.045
864.86	0.046
865.30	0.042
865.73	0.050
866.16	0.045
866.59	0.047
867.02	0.046
867.45	0.048
867.88	0.046
868.31	0.048
868.75	0.054
869.18	0.047
869.61	0.048
870.04	0.045
870.47	0.046
870.90	0.046
871.33	0.050
871.76	0.049
872.19	0.049
872.62	0.059
873.06	0.046
873.49	0.049
873.92	0.048
874.35	0.055
874.78	0.055
875.21	0.046
875.64	0.048
876.07	0.056
876.50	0.048
876.93	0.052
877.36	0.051
877.79	0.044
878.22	0.050
878.65	0.051
879.08	0.048
879.51	0.052
879.94	0.059
880.37	0.048
880.80	0.051
881.23	0.054
881.67	0.049
882.10	0.052
882.53	0.052
882.96	0.057
883.39	0.055
883.82	0.056
884.25	0.053
884.68	0.054
885.11	0.048
885.54	0.052
885.97	0.050
886.39	0.053
886.82	0.061
887.25	0.052
887.68	0.053
888.11	0.055
888.54	0.057
888.97	0.058
889.40	0.053
889.83	0.054
890.26	0.059
890.69	0.058
891.12	0.050
891.55	0.056
891.98	0.056
892.41	0.058
892.84	0.055
893.27	0.056
893.70	0.056
894.13	0.055
894.56	0.054
894.98	0.057
895.41	0.057
895.84	0.056
896.27	0.058
896.70	0.059
897.13	0.061
897.56	0.063
897.99	0.057
898.42	0.060
898.85	0.060
899.27	0.052
899.70	0.057
900.13	0.055
900.56	0.059
900.99	0.058
901.42	0.061
901.85	0.060
902.28	0.062
902.70	0.060
903.13	0.061
903.56	0.062
903.99	0.063
904.42	0.062
904.85	0.062
905.27	0.063
905.70	0.058
906.13	0.063
906.56	0.063
906.99	0.064
907.42	0.061
907.84	0.066
908.27	0.060
908.70	0.061
909.13	0.062
909.56	0.066
909.98	0.059
910.41	0.057
910.84	0.061
911.27	0.060
911.70	0.054
912.12	0.061
912.55	0.059
912.98	0.060
913.41	0.061
913.84	0.064
914.26	0.062
914.69	0.062
915.12	0.061
915.55	0.061
915.97	0.061
916.40	0.063
916.83	0.063
917.26	0.067
917.68	0.063
918.11	0.063
918.54	0.064
918.97	0.065
919.39	0.063
919.82	0.066
920.25	0.067
920.67	0.065
921.10	0.066
921.53	0.066
921.96	0.071
922.38	0.070
922.81	0.064
923.24	0.068
923.66	0.066
924.09	0.069
924.52	0.069
924.94	0.066
925.37	0.071
925.80	0.070
926.22	0.073
926.65	0.077
927.08	0.072
927.50	0.074
927.93	0.073
928.36	0.079
928.78	0.074
929.21	0.076
929.64	0.073
930.06	0.076
930.49	0.078
930.92	0.079
931.34	0.079
931.77	0.079
932.20	0.087
932.62	0.087
933.05	0.084
933.47	0.088
933.90	0.089
934.33	0.087
934.75	0.089
935.18	0.094
935.61	0.092
936.03	0.090
936.46	0.096
936.88	0.097
937.31	0.097
937.73	0.095
938.16	0.093
938.59	0.108
939.01	0.108
939.44	0.102
939.86	0.107
940.29	0.103
940.71	0.111
941.14	0.117
941.57	0.111
941.99	0.127
942.42	0.118
942.84	0.113
943.27	0.115
943.69	0.119
944.12	0.122
944.54	0.127
944.97	0.127
945.39	0.132
945.82	0.131
946.24	0.133
946.67	0.129
947.09	0.133
947.52	0.138
947.94	0.142
948.37	0.141
948.79	0.147
949.22	0.152
949.64	0.156
950.07	0.151
950.49	0.160
950.92	0.156
951.34	0.163
951.77	0.166
952.19	0.166
952.62	0.178
953.04	0.175
953.47	0.178
953.89	0.183
954.32	0.178
954.74	0.177
955.17	0.187
955.59	0.193
956.01	0.193
956.44	0.190
956.86	0.194
957.29	0.201
957.71	0.211
958.14	0.206
958.56	0.203
958.98	0.207
959.41	0.207
959.83	0.206
960.26	0.207
960.68	0.214
961.10	0.212
961.53	0.212
961.95	0.215
962.38	0.217
962.80	0.219
963.22	0.225
963.65	0.228
964.07	0.223
964.50	0.218
964.92	0.223
965.34	0.225
965.77	0.227
966.19	0.228
966.61	0.230
967.04	0.229
967.46	0.226
967.88	0.226
968.31	0.230
968.73	0.235
969.15	0.232
969.58	0.228
970.00	0.228
970.42	0.236
970.85	0.231
971.27	0.231
971.69	0.232
972.12	0.238
972.54	0.237
972.96	0.229
973.39	0.230
973.81	0.239
974.23	0.246
974.65	0.232
975.08	0.234
975.50	0.232
975.92	0.244
976.35	0.241
976.77	0.230
977.19	0.234
977.61	0.236
978.04	0.236
978.46	0.236
978.88	0.238
979.30	0.243
979.73	0.238
980.15	0.242
980.57	0.241
980.99	0.241
981.42	0.236
981.84	0.242
982.26	0.242
982.68	0.233
983.11	0.237
983.53	0.232
983.95	0.233
984.37	0.232
984.79	0.236
985.22	0.235
985.64	0.239
986.06	0.230
986.48	0.235
986.90	0.232
987.33	0.229
987.75	0.229
988.17	0.226
988.59	0.229
989.01	0.229
989.43	0.224
989.86	0.232
990.28	0.229
990.70	0.234
991.12	0.233
991.54	0.225
991.96	0.222
992.39	0.221
992.81	0.217
993.23	0.221
993.65	0.218
994.07	0.226
994.49	0.221
994.91	0.226
995.34	0.221
995.76	0.216
996.18	0.218
996.60	0.213
997.02	0.212
997.44	0.217
997.86	0.211
998.28	0.218
998.70	0.209
999.12	0.218
999.55	0.217
999.97	0.207
1000.39	0.219
1000.81	0.218
1001.23	0.206
1001.65	0.204
1002.07	0.204
1002.49	0.211
1002.91	0.202
1003.33	0.218
1003.75	0.200
1004.17	0.208
1004.59	0.201
1005.01	0.203
1005.43	0.211
1005.85	0.193
1006.28	0.210
1006.70	0.199
1007.12	0.198
1007.54	0.197
1007.96	0.204
1008.38	0.187
1008.80	0.192
1009.22	0.191
1009.64	0.195
1010.06	0.188
1010.48	0.183
1010.90	0.193
1011.32	0.200
1011.74	0.189
1012.16	0.185
1012.58	0.188
1013.00	0.184
1013.42	0.187
1013.84	0.188
1014.26	0.186
1014.67	0.186
1015.09	0.187
1015.51	0.185
1015.93	0.184
1016.35	0.175
1016.77	0.184
1017.19	0.180
1017.61	0.175
1018.03	0.171
1018.45	0.170
1018.87	0.170
1019.29	0.183
1019.71	0.167
1020.13	0.179
1020.55	0.181
1020.97	0.169
1021.38	0.163
1021.80	0.162
1022.22	0.167
1022.64	0.160
1023.06	0.148
1023.48	0.169
1023.90	0.167
1024.32	0.153
1024.74	0.160
1025.15	0.154
1025.57	0.152
1025.99	0.151
1026.41	0.162
1026.83	0.143
1027.25	0.155
1027.67	0.168
1028.08	0.153
1028.50	0.156
1028.92	0.152
1029.34	0.157
1029.76	0.148
1030.18	0.159
1030.60	0.149
1031.01	0.138
1031.43	0.157
1031.85	0.135
1032.27	0.135
1032.69	0.130
1033.10	0.158
1033.52	0.152
1033.94	0.149
1034.36	0.133
1034.78	0.147
1035.19	0.143
1035.61	0.126
1036.03	0.128
1036.45	0.129
1036.87	0.117
1037.28	0.113
1037.70	0.143
1038.12	0.138
1038.54	0.115
1038.95	0.121
1039.37	0.119
1039.79	0.123
1040.21	0.126
1040.62	0.107
1041.04	0.118
1041.46	0.126
1041.88	0.118
1042.29	0.129
1042.71	0.118
1043.13	0.107
1043.55	0.119
1043.96	0.139
1044.38	0.119
1044.80	0.127
1045.21	0.122
1045.63	0.102
1046.05	0.126
1046.47	0.124
1046.88	0.125
1047.30	0.117
1047.72	0.106
1048.13	0.097
1048.55	0.110
1048.97	0.110
1049.38	0.130
1049.80	0.119
1050.22	0.116
1050.63	0.132
1051.05	0.093
1051.47	0.139
1051.88	0.118
1052.30	0.097
1052.72	0.109
1053.13	0.108
1053.55	0.102
1053.97	0.096
1054.38	0.128
1054.80	0.143
1055.21	0.099
1055.63	0.131
1056.05	0.139
1056.46	0.158
1056.88	0.115
1057.29	0.121
1057.71	0.104
1058.13	0.086
1058.54	0.103
1058.96	0.128
1059.37	0.144
1059.79	0.139
1060.21	0.125
1060.62	0.146
1061.04	0.152
1061.45	0.111
1061.87	0.151
1062.28	0.075
1062.70	0.123
1063.12	0.123
1063.53	0.129
1063.95	0.114
1064.36	0.116
1064.78	0.133
1065.19	0.055
1065.61	0.095
1066.02	0.118
1066.44	0.175
1066.85	0.190
1067.27	0.128
1067.68	0.168
1068.10	0.159
1068.51	0.197
1068.93	0.231
1069.35	0.162
1069.76	0.139
1070.17	0.211
1070.59	0.096
1071.00	0.285
1071.42	0.107
1071.83	0.210
1072.25	0.218
1072.66	0.180
1073.08	0.285
1073.49	0.242
1073.91	0.240
1074.32	0.068
1074.74	0.154
1075.15	0.280
1075.57	0.266
1075.98	0.159
1076.40	0.204
1076.81	0.261
1077.22	0.241
1077.64	0.322
1078.05	0.267
1078.47	0.203
1078.88	0.163
1079.30	0.400
1079.71	0.313
1080.12	0.303
1080.54	0.113
1080.95	0.424
1081.37	0.361
1081.78	0.384
1082.19	0.504
1082.61	0.293
1083.02	0.442
1083.44	0.388
1083.85	0.355
1084.26	0.343
1084.68	0.457
1085.09	0.170
1085.50	1.011
1085.92	1.041
1086.33	0.389
1086.74	0.475
1087.16	-0.000
1087.57	0.683
1087.98	-0.000
1088.40	0.364
1088.81	0.596
1089.22	0.345
1089.64	0.301
1090.05	0.867
1090.46	-0.000
1090.88	0.441
1091.29	0.508
1091.70	-0.000
1092.12	-0.000
1092.53	0.477
1092.94	0.443
1093.36	0.236
1093.77	0.344
1094.18	0.614
1094.59	0.201
1095.01	0.327
1095.42	0.246
1095.83	0.714
1096.25	0.656
1096.66	-0.023
1097.07	0.153
1097.48	0.125
1097.90	0.536
1098.31	-0.171
1098.72	0.588
1099.13	0.465
>>>>>End Processed Spectral Data<<<<<
