SpectraSuite Data File
++++++++++++++++++++++++++++++++++++
Date: Mon Jul 10 13:55:47 CEST 2017
User: IPCE
Dark Spectrum Present: Yes
Reference Spectrum Present: Yes
Number of Sampled Component Spectra: 1
Spectrometers: HR+C0708
Integration Time (usec): 1000 (HR+C0708)
Spectra Averaged: 10 (HR+C0708)
Boxcar Smoothing: 0 (HR+C0708)
Correct for Electrical Dark: No (HR+C0708)
Strobe/Lamp Enabled: No (HR+C0708)
Correct for Detector Non-linearity: No (HR+C0708)
Correct for Stray Light: No (HR+C0708)
Number of Pixels in Processed Spectrum: 2048
>>>>>Begin Processed Spectral Data<<<<<
188.76	0.715
189.23	-0.000
189.70	-0.000
190.17	0.770
190.64	0.430
191.12	-0.141
191.59	-0.000
192.06	0.527
192.53	0.688
193.01	-0.000
193.48	0.487
193.95	0.237
194.42	-0.000
194.90	1.522
195.37	-0.000
195.84	1.125
196.31	-0.000
196.78	-0.000
197.26	0.315
197.73	0.781
198.20	-0.000
198.67	-0.000
199.14	-0.000
199.62	-0.000
200.09	0.635
200.56	0.855
201.03	1.120
201.50	0.585
201.97	0.689
202.45	0.555
202.92	0.884
203.39	0.968
203.86	0.761
204.33	0.657
204.80	0.684
205.28	1.033
205.75	0.865
206.22	0.553
206.69	0.796
207.16	0.570
207.63	0.508
208.11	0.500
208.58	0.746
209.05	0.352
209.52	0.475
209.99	0.547
210.46	0.584
210.93	0.575
211.41	0.604
211.88	0.478
212.35	0.596
212.82	0.504
213.29	0.460
213.76	0.559
214.23	0.753
214.70	0.767
215.18	0.807
215.65	0.756
216.12	0.676
216.59	0.831
217.06	0.533
217.53	0.656
218.00	0.557
218.47	0.479
218.94	0.598
219.41	0.561
219.89	0.606
220.36	0.604
220.83	0.504
221.30	0.522
221.77	0.699
222.24	0.686
222.71	1.316
223.18	0.667
223.65	0.797
224.12	0.985
224.59	0.917
225.06	0.721
225.54	1.272
226.01	1.301
226.48	1.027
226.95	1.062
227.42	0.935
227.89	1.203
228.36	2.227
228.83	1.199
229.30	1.419
229.77	1.213
230.24	1.441
230.71	1.867
231.18	1.532
231.65	1.667
232.12	1.879
232.59	1.760
233.06	1.781
233.53	1.788
234.00	1.715
234.47	1.813
234.94	1.870
235.41	1.834
235.88	2.238
236.35	1.901
236.82	1.985
237.29	2.449
237.76	2.361
238.23	2.203
238.70	2.641
239.17	2.047
239.64	2.481
240.11	2.391
240.58	2.215
241.05	3.682
241.52	2.262
241.99	2.318
242.46	2.494
242.93	4.003
243.40	2.783
243.87	2.789
244.34	2.476
244.81	2.738
245.28	2.684
245.75	2.365
246.22	2.710
246.69	2.464
247.16	2.852
247.63	2.746
248.10	2.763
248.57	2.559
249.04	2.598
249.51	2.730
249.98	2.552
250.45	2.768
250.92	2.818
251.39	3.386
251.85	2.477
252.32	2.681
252.79	3.028
253.26	2.306
253.73	2.697
254.20	2.424
254.67	2.540
255.14	2.760
255.61	2.651
256.08	2.670
256.55	2.818
257.02	2.813
257.49	2.741
257.95	3.082
258.42	2.652
258.89	2.687
259.36	3.466
259.83	3.006
260.30	2.771
260.77	2.735
261.24	2.906
261.71	2.937
262.17	2.700
262.64	2.755
263.11	2.935
263.58	3.184
264.05	2.810
264.52	2.647
264.99	2.843
265.46	2.751
265.92	2.818
266.39	2.796
266.86	2.959
267.33	2.834
267.80	2.709
268.27	2.918
268.74	2.932
269.20	2.630
269.67	2.843
270.14	2.827
270.61	2.867
271.08	2.973
271.55	2.748
272.01	2.793
272.48	2.869
272.95	2.717
273.42	2.795
273.89	2.760
274.36	2.955
274.82	2.966
275.29	2.630
275.76	2.816
276.23	2.724
276.70	2.570
277.16	2.911
277.63	2.698
278.10	2.687
278.57	2.918
279.04	2.799
279.50	2.434
279.97	2.638
280.44	2.585
280.91	2.654
281.38	2.639
281.84	2.705
282.31	2.756
282.78	2.787
283.25	2.625
283.72	2.761
284.18	2.638
284.65	2.671
285.12	2.529
285.59	2.959
286.05	2.621
286.52	2.694
286.99	2.632
287.46	2.890
287.92	2.581
288.39	2.495
288.86	2.766
289.33	2.609
289.79	2.717
290.26	2.640
290.73	2.559
291.20	2.554
291.66	2.520
292.13	2.588
292.60	2.495
293.07	2.617
293.53	2.469
294.00	2.479
294.47	2.536
294.93	2.401
295.40	2.754
295.87	2.503
296.34	2.534
296.80	2.637
297.27	2.721
297.74	2.555
298.20	2.637
298.67	2.441
299.14	2.533
299.60	2.491
300.07	2.330
300.54	2.436
301.01	2.474
301.47	2.449
301.94	2.551
302.41	2.456
302.87	2.368
303.34	2.423
303.81	2.218
304.27	2.287
304.74	2.421
305.21	2.235
305.67	2.324
306.14	2.299
306.61	2.316
307.07	2.419
307.54	2.275
308.01	2.285
308.47	2.334
308.94	2.301
309.40	2.313
309.87	2.287
310.34	2.227
310.80	2.351
311.27	2.277
311.74	2.261
312.20	2.204
312.67	2.281
313.13	2.392
313.60	2.317
314.07	2.328
314.53	2.313
315.00	2.271
315.47	2.279
315.93	2.340
316.40	2.234
316.86	2.221
317.33	2.338
317.80	2.246
318.26	2.311
318.73	2.300
319.19	2.248
319.66	2.185
320.13	2.322
320.59	2.124
321.06	2.190
321.52	2.217
321.99	2.175
322.45	2.202
322.92	2.220
323.39	2.153
323.85	2.172
324.32	2.193
324.78	2.210
325.25	2.271
325.71	2.154
326.18	2.163
326.64	2.205
327.11	2.092
327.58	2.169
328.04	2.047
328.51	2.024
328.97	2.079
329.44	2.053
329.90	1.977
330.37	2.079
330.83	1.955
331.30	2.017
331.76	1.969
332.23	1.922
332.69	1.956
333.16	1.894
333.62	1.898
334.09	1.846
334.56	1.794
335.02	1.775
335.49	1.755
335.95	1.710
336.42	1.660
336.88	1.627
337.35	1.554
337.81	1.537
338.28	1.485
338.74	1.445
339.20	1.433
339.67	1.382
340.13	1.341
340.60	1.300
341.06	1.259
341.53	1.213
341.99	1.157
342.46	1.109
342.92	1.093
343.39	1.031
343.85	1.006
344.32	0.974
344.78	0.944
345.25	0.911
345.71	0.875
346.17	0.836
346.64	0.799
347.10	0.761
347.57	0.726
348.03	0.699
348.50	0.668
348.96	0.638
349.43	0.611
349.89	0.582
350.35	0.567
350.82	0.540
351.28	0.522
351.75	0.502
352.21	0.482
352.67	0.462
353.14	0.446
353.60	0.429
354.07	0.414
354.53	0.402
355.00	0.390
355.46	0.377
355.92	0.369
356.39	0.358
356.85	0.349
357.31	0.339
357.78	0.329
358.24	0.330
358.71	0.322
359.17	0.311
359.63	0.309
360.10	0.305
360.56	0.300
361.03	0.296
361.49	0.291
361.95	0.289
362.42	0.290
362.88	0.284
363.34	0.288
363.81	0.280
364.27	0.280
364.73	0.275
365.20	0.273
365.66	0.271
366.12	0.272
366.59	0.265
367.05	0.266
367.51	0.270
367.98	0.264
368.44	0.261
368.90	0.259
369.37	0.257
369.83	0.258
370.29	0.256
370.76	0.252
371.22	0.255
371.68	0.253
372.15	0.253
372.61	0.250
373.07	0.248
373.54	0.245
374.00	0.247
374.46	0.247
374.92	0.247
375.39	0.245
375.85	0.244
376.31	0.243
376.78	0.237
377.24	0.241
377.70	0.237
378.16	0.238
378.63	0.240
379.09	0.238
379.55	0.239
380.01	0.235
380.48	0.232
380.94	0.232
381.40	0.231
381.87	0.232
382.33	0.235
382.79	0.233
383.25	0.226
383.72	0.230
384.18	0.228
384.64	0.227
385.10	0.227
385.56	0.225
386.03	0.224
386.49	0.226
386.95	0.222
387.41	0.226
387.88	0.224
388.34	0.219
388.80	0.221
389.26	0.220
389.72	0.219
390.19	0.222
390.65	0.215
391.11	0.214
391.57	0.214
392.04	0.214
392.50	0.215
392.96	0.215
393.42	0.213
393.88	0.211
394.34	0.212
394.81	0.211
395.27	0.213
395.73	0.209
396.19	0.208
396.65	0.212
397.12	0.207
397.58	0.210
398.04	0.210
398.50	0.209
398.96	0.211
399.42	0.207
399.89	0.209
400.35	0.202
400.81	0.203
401.27	0.202
401.73	0.205
402.19	0.201
402.65	0.199
403.12	0.197
403.58	0.197
404.04	0.197
404.50	0.195
404.96	0.196
405.42	0.198
405.88	0.196
406.34	0.194
406.81	0.194
407.27	0.191
407.73	0.194
408.19	0.191
408.65	0.190
409.11	0.190
409.57	0.188
410.03	0.188
410.49	0.187
410.96	0.188
411.42	0.186
411.88	0.185
412.34	0.186
412.80	0.182
413.26	0.185
413.72	0.184
414.18	0.182
414.64	0.180
415.10	0.182
415.56	0.183
416.02	0.180
416.48	0.183
416.95	0.178
417.41	0.181
417.87	0.179
418.33	0.176
418.79	0.180
419.25	0.176
419.71	0.177
420.17	0.178
420.63	0.175
421.09	0.177
421.55	0.177
422.01	0.176
422.47	0.172
422.93	0.174
423.39	0.174
423.85	0.172
424.31	0.176
424.77	0.173
425.23	0.173
425.69	0.174
426.15	0.173
426.61	0.171
427.07	0.169
427.53	0.169
427.99	0.168
428.45	0.170
428.91	0.169
429.37	0.166
429.83	0.168
430.29	0.170
430.75	0.168
431.21	0.167
431.67	0.168
432.13	0.168
432.59	0.165
433.05	0.163
433.51	0.164
433.97	0.163
434.43	0.165
434.89	0.166
435.35	0.160
435.81	0.161
436.27	0.160
436.73	0.158
437.19	0.160
437.65	0.163
438.11	0.159
438.57	0.158
439.03	0.158
439.48	0.160
439.94	0.159
440.40	0.159
440.86	0.158
441.32	0.156
441.78	0.157
442.24	0.155
442.70	0.155
443.16	0.155
443.62	0.154
444.08	0.157
444.54	0.154
444.99	0.154
445.45	0.153
445.91	0.153
446.37	0.152
446.83	0.150
447.29	0.153
447.75	0.151
448.21	0.151
448.67	0.152
449.12	0.149
449.58	0.152
450.04	0.153
450.50	0.149
450.96	0.152
451.42	0.149
451.88	0.148
452.34	0.149
452.79	0.148
453.25	0.149
453.71	0.148
454.17	0.147
454.63	0.147
455.09	0.148
455.55	0.144
456.00	0.146
456.46	0.144
456.92	0.144
457.38	0.138
457.84	0.146
458.30	0.142
458.75	0.143
459.21	0.141
459.67	0.144
460.13	0.142
460.59	0.144
461.04	0.145
461.50	0.144
461.96	0.142
462.42	0.142
462.88	0.144
463.33	0.141
463.79	0.140
464.25	0.142
464.71	0.141
465.17	0.140
465.62	0.139
466.08	0.142
466.54	0.141
467.00	0.141
467.46	0.140
467.91	0.139
468.37	0.137
468.83	0.141
469.29	0.140
469.74	0.140
470.20	0.138
470.66	0.139
471.12	0.140
471.57	0.141
472.03	0.137
472.49	0.140
472.95	0.139
473.40	0.138
473.86	0.137
474.32	0.140
474.78	0.138
475.23	0.135
475.69	0.139
476.15	0.137
476.60	0.138
477.06	0.136
477.52	0.137
477.98	0.136
478.43	0.135
478.89	0.134
479.35	0.134
479.80	0.136
480.26	0.136
480.72	0.138
481.18	0.134
481.63	0.138
482.09	0.134
482.55	0.136
483.00	0.134
483.46	0.134
483.92	0.132
484.37	0.133
484.83	0.131
485.29	0.135
485.74	0.132
486.20	0.134
486.66	0.132
487.11	0.132
487.57	0.131
488.03	0.132
488.48	0.131
488.94	0.133
489.40	0.131
489.85	0.131
490.31	0.129
490.77	0.131
491.22	0.129
491.68	0.132
492.13	0.128
492.59	0.130
493.05	0.130
493.50	0.128
493.96	0.130
494.42	0.130
494.87	0.132
495.33	0.131
495.78	0.130
496.24	0.129
496.70	0.129
497.15	0.128
497.61	0.130
498.06	0.130
498.52	0.127
498.98	0.131
499.43	0.129
499.89	0.127
500.34	0.126
500.80	0.127
501.25	0.128
501.71	0.126
502.17	0.125
502.62	0.126
503.08	0.126
503.53	0.127
503.99	0.123
504.44	0.124
504.90	0.123
505.36	0.124
505.81	0.124
506.27	0.126
506.72	0.125
507.18	0.124
507.63	0.123
508.09	0.123
508.54	0.122
509.00	0.121
509.45	0.123
509.91	0.122
510.36	0.122
510.82	0.124
511.27	0.125
511.73	0.124
512.19	0.120
512.64	0.123
513.10	0.123
513.55	0.118
514.01	0.119
514.46	0.122
514.92	0.119
515.37	0.118
515.83	0.121
516.28	0.122
516.73	0.120
517.19	0.119
517.64	0.122
518.10	0.118
518.55	0.119
519.01	0.118
519.46	0.117
519.92	0.118
520.37	0.119
520.83	0.118
521.28	0.119
521.74	0.118
522.19	0.118
522.65	0.116
523.10	0.119
523.55	0.118
524.01	0.117
524.46	0.118
524.92	0.118
525.37	0.118
525.83	0.117
526.28	0.115
526.73	0.119
527.19	0.117
527.64	0.117
528.10	0.117
528.55	0.116
529.01	0.117
529.46	0.118
529.91	0.117
530.37	0.118
530.82	0.115
531.28	0.116
531.73	0.119
532.18	0.118
532.64	0.116
533.09	0.117
533.54	0.114
534.00	0.115
534.45	0.117
534.91	0.118
535.36	0.117
535.81	0.114
536.27	0.118
536.72	0.117
537.17	0.115
537.63	0.118
538.08	0.120
538.54	0.118
538.99	0.117
539.44	0.117
539.90	0.118
540.35	0.117
540.80	0.117
541.26	0.115
541.71	0.117
542.16	0.118
542.62	0.118
543.07	0.118
543.52	0.119
543.98	0.117
544.43	0.119
544.88	0.120
545.34	0.120
545.79	0.119
546.24	0.121
546.69	0.118
547.15	0.121
547.60	0.122
548.05	0.120
548.51	0.119
548.96	0.119
549.41	0.122
549.86	0.119
550.32	0.122
550.77	0.122
551.22	0.124
551.68	0.125
552.13	0.123
552.58	0.122
553.03	0.124
553.49	0.123
553.94	0.127
554.39	0.126
554.84	0.123
555.30	0.125
555.75	0.126
556.20	0.124
556.65	0.126
557.11	0.124
557.56	0.130
558.01	0.129
558.46	0.129
558.92	0.131
559.37	0.130
559.82	0.129
560.27	0.129
560.72	0.131
561.18	0.131
561.63	0.131
562.08	0.132
562.53	0.130
562.99	0.131
563.44	0.134
563.89	0.132
564.34	0.132
564.79	0.134
565.25	0.135
565.70	0.139
566.15	0.137
566.60	0.133
567.05	0.137
567.50	0.138
567.96	0.139
568.41	0.138
568.86	0.138
569.31	0.139
569.76	0.140
570.21	0.142
570.67	0.141
571.12	0.141
571.57	0.142
572.02	0.144
572.47	0.144
572.92	0.144
573.37	0.145
573.83	0.144
574.28	0.145
574.73	0.147
575.18	0.147
575.63	0.147
576.08	0.149
576.53	0.148
576.98	0.150
577.44	0.152
577.89	0.153
578.34	0.153
578.79	0.154
579.24	0.153
579.69	0.155
580.14	0.157
580.59	0.157
581.04	0.157
581.49	0.159
581.95	0.159
582.40	0.160
582.85	0.162
583.30	0.164
583.75	0.164
584.20	0.168
584.65	0.167
585.10	0.169
585.55	0.171
586.00	0.172
586.45	0.170
586.90	0.174
587.35	0.175
587.80	0.177
588.25	0.176
588.71	0.177
589.16	0.183
589.61	0.182
590.06	0.184
590.51	0.188
590.96	0.188
591.41	0.189
591.86	0.191
592.31	0.192
592.76	0.193
593.21	0.193
593.66	0.197
594.11	0.197
594.56	0.200
595.01	0.202
595.46	0.203
595.91	0.204
596.36	0.207
596.81	0.210
597.26	0.211
597.71	0.214
598.16	0.216
598.61	0.217
599.06	0.217
599.51	0.220
599.96	0.222
600.41	0.224
600.86	0.225
601.31	0.227
601.76	0.227
602.21	0.230
602.65	0.231
603.10	0.236
603.55	0.238
604.00	0.238
604.45	0.239
604.90	0.242
605.35	0.243
605.80	0.245
606.25	0.245
606.70	0.247
607.15	0.246
607.60	0.249
608.05	0.252
608.50	0.251
608.95	0.254
609.39	0.253
609.84	0.257
610.29	0.258
610.74	0.256
611.19	0.257
611.64	0.261
612.09	0.260
612.54	0.260
612.99	0.262
613.44	0.263
613.88	0.265
614.33	0.265
614.78	0.265
615.23	0.265
615.68	0.265
616.13	0.267
616.58	0.269
617.03	0.267
617.47	0.271
617.92	0.269
618.37	0.269
618.82	0.268
619.27	0.270
619.72	0.270
620.17	0.270
620.61	0.272
621.06	0.272
621.51	0.273
621.96	0.271
622.41	0.273
622.86	0.272
623.30	0.274
623.75	0.274
624.20	0.276
624.65	0.277
625.10	0.277
625.54	0.277
625.99	0.276
626.44	0.280
626.89	0.278
627.34	0.281
627.78	0.282
628.23	0.281
628.68	0.283
629.13	0.283
629.58	0.283
630.02	0.286
630.47	0.286
630.92	0.289
631.37	0.290
631.81	0.291
632.26	0.294
632.71	0.294
633.16	0.298
633.61	0.297
634.05	0.299
634.50	0.302
634.95	0.305
635.40	0.306
635.84	0.306
636.29	0.311
636.74	0.313
637.18	0.313
637.63	0.316
638.08	0.317
638.53	0.318
638.97	0.323
639.42	0.328
639.87	0.329
640.32	0.330
640.76	0.331
641.21	0.335
641.66	0.339
642.10	0.341
642.55	0.345
643.00	0.349
643.44	0.348
643.89	0.353
644.34	0.355
644.79	0.361
645.23	0.360
645.68	0.365
646.13	0.369
646.57	0.370
647.02	0.373
647.47	0.377
647.91	0.381
648.36	0.385
648.81	0.387
649.25	0.389
649.70	0.393
650.15	0.395
650.59	0.396
651.04	0.399
651.48	0.404
651.93	0.409
652.38	0.410
652.82	0.413
653.27	0.412
653.72	0.418
654.16	0.422
654.61	0.425
655.06	0.427
655.50	0.426
655.95	0.429
656.39	0.432
656.84	0.437
657.29	0.439
657.73	0.438
658.18	0.442
658.62	0.446
659.07	0.446
659.52	0.446
659.96	0.452
660.41	0.451
660.85	0.451
661.30	0.452
661.74	0.457
662.19	0.457
662.64	0.457
663.08	0.460
663.53	0.461
663.97	0.461
664.42	0.460
664.86	0.462
665.31	0.463
665.75	0.460
666.20	0.462
666.65	0.462
667.09	0.458
667.54	0.457
667.98	0.455
668.43	0.454
668.87	0.454
669.32	0.449
669.76	0.446
670.21	0.442
670.65	0.442
671.10	0.436
671.54	0.433
671.99	0.430
672.43	0.424
672.88	0.418
673.32	0.415
673.77	0.408
674.21	0.403
674.66	0.395
675.10	0.390
675.55	0.384
675.99	0.377
676.44	0.369
676.88	0.364
677.33	0.356
677.77	0.345
678.22	0.341
678.66	0.331
679.11	0.326
679.55	0.317
679.99	0.310
680.44	0.302
680.88	0.295
681.33	0.285
681.77	0.277
682.22	0.270
682.66	0.263
683.11	0.255
683.55	0.249
683.99	0.241
684.44	0.236
684.88	0.226
685.33	0.222
685.77	0.215
686.21	0.208
686.66	0.202
687.10	0.193
687.55	0.189
687.99	0.185
688.44	0.179
688.88	0.172
689.32	0.165
689.77	0.164
690.21	0.160
690.65	0.152
691.10	0.149
691.54	0.145
691.99	0.141
692.43	0.136
692.87	0.132
693.32	0.131
693.76	0.126
694.20	0.123
694.65	0.121
695.09	0.118
695.53	0.114
695.98	0.111
696.42	0.106
696.86	0.104
697.31	0.104
697.75	0.104
698.19	0.101
698.64	0.097
699.08	0.099
699.52	0.094
699.97	0.092
700.41	0.092
700.85	0.088
701.30	0.088
701.74	0.085
702.18	0.084
702.63	0.082
703.07	0.082
703.51	0.084
703.96	0.079
704.40	0.080
704.84	0.078
705.28	0.077
705.73	0.078
706.17	0.075
706.61	0.075
707.06	0.074
707.50	0.074
707.94	0.070
708.38	0.069
708.83	0.072
709.27	0.070
709.71	0.069
710.15	0.072
710.60	0.069
711.04	0.066
711.48	0.069
711.92	0.066
712.37	0.068
712.81	0.068
713.25	0.067
713.69	0.067
714.13	0.066
714.58	0.067
715.02	0.066
715.46	0.061
715.90	0.063
716.35	0.065
716.79	0.064
717.23	0.063
717.67	0.066
718.11	0.066
718.56	0.062
719.00	0.061
719.44	0.063
719.88	0.067
720.32	0.061
720.76	0.064
721.21	0.063
721.65	0.061
722.09	0.063
722.53	0.063
722.97	0.063
723.41	0.061
723.86	0.064
724.30	0.062
724.74	0.063
725.18	0.063
725.62	0.062
726.06	0.061
726.50	0.064
726.95	0.063
727.39	0.062
727.83	0.067
728.27	0.063
728.71	0.060
729.15	0.065
729.59	0.063
730.03	0.065
730.48	0.064
730.92	0.063
731.36	0.062
731.80	0.063
732.24	0.061
732.68	0.063
733.12	0.065
733.56	0.064
734.00	0.067
734.44	0.065
734.89	0.064
735.33	0.064
735.77	0.063
736.21	0.067
736.65	0.064
737.09	0.065
737.53	0.064
737.97	0.063
738.41	0.063
738.85	0.065
739.29	0.065
739.73	0.066
740.17	0.068
740.61	0.066
741.05	0.066
741.49	0.065
741.93	0.064
742.37	0.065
742.81	0.062
743.26	0.063
743.70	0.065
744.14	0.062
744.58	0.065
745.02	0.063
745.46	0.063
745.90	0.062
746.34	0.065
746.78	0.063
747.22	0.064
747.66	0.063
748.10	0.061
748.54	0.065
748.98	0.065
749.42	0.064
749.86	0.064
750.29	0.062
750.73	0.061
751.17	0.064
751.61	0.065
752.05	0.063
752.49	0.062
752.93	0.058
753.37	0.062
753.81	0.062
754.25	0.061
754.69	0.065
755.13	0.062
755.57	0.062
756.01	0.065
756.45	0.062
756.89	0.059
757.33	0.066
757.77	0.060
758.21	0.061
758.64	0.065
759.08	0.058
759.52	0.059
759.96	0.060
760.40	0.059
760.84	0.061
761.28	0.059
761.72	0.059
762.16	0.063
762.60	0.060
763.03	0.058
763.47	0.060
763.91	0.060
764.35	0.060
764.79	0.061
765.23	0.064
765.67	0.061
766.11	0.058
766.54	0.063
766.98	0.065
767.42	0.060
767.86	0.060
768.30	0.062
768.74	0.060
769.17	0.059
769.61	0.059
770.05	0.063
770.49	0.062
770.93	0.059
771.37	0.058
771.80	0.060
772.24	0.060
772.68	0.062
773.12	0.061
773.56	0.058
774.00	0.060
774.43	0.058
774.87	0.058
775.31	0.059
775.75	0.057
776.19	0.058
776.62	0.060
777.06	0.059
777.50	0.063
777.94	0.060
778.37	0.062
778.81	0.060
779.25	0.060
779.69	0.059
780.13	0.061
780.56	0.064
781.00	0.062
781.44	0.058
781.88	0.059
782.31	0.059
782.75	0.055
783.19	0.059
783.63	0.059
784.06	0.060
784.50	0.058
784.94	0.062
785.37	0.057
785.81	0.057
786.25	0.055
786.69	0.058
787.12	0.057
787.56	0.057
788.00	0.060
788.43	0.060
788.87	0.058
789.31	0.056
789.75	0.061
790.18	0.058
790.62	0.058
791.06	0.058
791.49	0.059
791.93	0.059
792.37	0.057
792.80	0.055
793.24	0.051
793.68	0.061
794.11	0.057
794.55	0.058
794.99	0.056
795.42	0.055
795.86	0.056
796.30	0.058
796.73	0.057
797.17	0.062
797.61	0.057
798.04	0.055
798.48	0.057
798.91	0.055
799.35	0.059
799.79	0.053
800.22	0.058
800.66	0.054
801.10	0.056
801.53	0.058
801.97	0.058
802.40	0.056
802.84	0.059
803.28	0.055
803.71	0.057
804.15	0.055
804.58	0.057
805.02	0.054
805.46	0.056
805.89	0.060
806.33	0.057
806.76	0.058
807.20	0.056
807.63	0.060
808.07	0.057
808.51	0.053
808.94	0.059
809.38	0.054
809.81	0.060
810.25	0.060
810.68	0.055
811.12	0.056
811.55	0.054
811.99	0.057
812.42	0.057
812.86	0.057
813.29	0.056
813.73	0.055
814.17	0.061
814.60	0.056
815.04	0.061
815.47	0.057
815.91	0.058
816.34	0.053
816.78	0.053
817.21	0.054
817.65	0.053
818.08	0.057
818.52	0.059
818.95	0.055
819.39	0.054
819.82	0.052
820.25	0.061
820.69	0.053
821.12	0.057
821.56	0.054
821.99	0.054
822.43	0.057
822.86	0.054
823.30	0.056
823.73	0.051
824.17	0.056
824.60	0.052
825.04	0.055
825.47	0.054
825.90	0.055
826.34	0.056
826.77	0.060
827.21	0.060
827.64	0.058
828.08	0.058
828.51	0.059
828.94	0.056
829.38	0.056
829.81	0.059
830.25	0.060
830.68	0.058
831.11	0.063
831.55	0.060
831.98	0.064
832.42	0.063
832.85	0.069
833.28	0.063
833.72	0.061
834.15	0.063
834.58	0.059
835.02	0.061
835.45	0.061
835.88	0.061
836.32	0.055
836.75	0.060
837.19	0.061
837.62	0.061
838.05	0.061
838.49	0.062
838.92	0.062
839.35	0.063
839.79	0.067
840.22	0.060
840.65	0.063
841.09	0.065
841.52	0.068
841.95	0.066
842.39	0.064
842.82	0.066
843.25	0.058
843.68	0.068
844.12	0.064
844.55	0.061
844.98	0.068
845.42	0.065
845.85	0.064
846.28	0.064
846.71	0.062
847.15	0.063
847.58	0.065
848.01	0.062
848.45	0.061
848.88	0.069
849.31	0.060
849.74	0.067
850.18	0.063
850.61	0.062
851.04	0.069
851.47	0.068
851.91	0.071
852.34	0.064
852.77	0.064
853.20	0.069
853.64	0.067
854.07	0.059
854.50	0.069
854.93	0.065
855.36	0.065
855.80	0.070
856.23	0.067
856.66	0.066
857.09	0.061
857.52	0.063
857.96	0.064
858.39	0.067
858.82	0.067
859.25	0.066
859.68	0.065
860.12	0.066
860.55	0.067
860.98	0.075
861.41	0.072
861.84	0.072
862.27	0.066
862.71	0.063
863.14	0.067
863.57	0.070
864.00	0.071
864.43	0.064
864.86	0.066
865.30	0.066
865.73	0.068
866.16	0.065
866.59	0.064
867.02	0.070
867.45	0.063
867.88	0.071
868.31	0.064
868.75	0.073
869.18	0.065
869.61	0.074
870.04	0.071
870.47	0.069
870.90	0.063
871.33	0.070
871.76	0.068
872.19	0.067
872.62	0.071
873.06	0.065
873.49	0.071
873.92	0.067
874.35	0.073
874.78	0.074
875.21	0.071
875.64	0.072
876.07	0.070
876.50	0.072
876.93	0.065
877.36	0.071
877.79	0.063
878.22	0.073
878.65	0.071
879.08	0.068
879.51	0.071
879.94	0.068
880.37	0.068
880.80	0.076
881.23	0.072
881.67	0.072
882.10	0.075
882.53	0.073
882.96	0.068
883.39	0.078
883.82	0.071
884.25	0.073
884.68	0.074
885.11	0.068
885.54	0.067
885.97	0.074
886.39	0.072
886.82	0.073
887.25	0.072
887.68	0.075
888.11	0.076
888.54	0.072
888.97	0.080
889.40	0.072
889.83	0.072
890.26	0.080
890.69	0.072
891.12	0.073
891.55	0.073
891.98	0.073
892.41	0.078
892.84	0.074
893.27	0.070
893.70	0.072
894.13	0.075
894.56	0.074
894.98	0.077
895.41	0.075
895.84	0.079
896.27	0.075
896.70	0.079
897.13	0.079
897.56	0.076
897.99	0.077
898.42	0.075
898.85	0.077
899.27	0.073
899.70	0.076
900.13	0.078
900.56	0.079
900.99	0.076
901.42	0.075
901.85	0.077
902.28	0.081
902.70	0.076
903.13	0.081
903.56	0.079
903.99	0.080
904.42	0.080
904.85	0.081
905.27	0.081
905.70	0.078
906.13	0.078
906.56	0.078
906.99	0.079
907.42	0.079
907.84	0.080
908.27	0.080
908.70	0.077
909.13	0.078
909.56	0.080
909.98	0.079
910.41	0.075
910.84	0.080
911.27	0.079
911.70	0.073
912.12	0.077
912.55	0.080
912.98	0.079
913.41	0.077
913.84	0.078
914.26	0.076
914.69	0.081
915.12	0.078
915.55	0.077
915.97	0.079
916.40	0.084
916.83	0.079
917.26	0.080
917.68	0.078
918.11	0.079
918.54	0.080
918.97	0.081
919.39	0.083
919.82	0.081
920.25	0.085
920.67	0.081
921.10	0.085
921.53	0.084
921.96	0.087
922.38	0.085
922.81	0.083
923.24	0.083
923.66	0.085
924.09	0.082
924.52	0.083
924.94	0.082
925.37	0.087
925.80	0.085
926.22	0.087
926.65	0.090
927.08	0.090
927.50	0.088
927.93	0.086
928.36	0.093
928.78	0.092
929.21	0.093
929.64	0.090
930.06	0.095
930.49	0.092
930.92	0.101
931.34	0.099
931.77	0.097
932.20	0.098
932.62	0.102
933.05	0.102
933.47	0.104
933.90	0.103
934.33	0.104
934.75	0.101
935.18	0.112
935.61	0.110
936.03	0.108
936.46	0.113
936.88	0.114
937.31	0.113
937.73	0.113
938.16	0.110
938.59	0.122
939.01	0.121
939.44	0.117
939.86	0.124
940.29	0.121
940.71	0.130
941.14	0.130
941.57	0.131
941.99	0.141
942.42	0.139
942.84	0.139
943.27	0.147
943.69	0.149
944.12	0.154
944.54	0.146
944.97	0.144
945.39	0.140
945.82	0.147
946.24	0.140
946.67	0.151
947.09	0.154
947.52	0.155
947.94	0.157
948.37	0.157
948.79	0.176
949.22	0.165
949.64	0.168
950.07	0.172
950.49	0.182
950.92	0.179
951.34	0.183
951.77	0.188
952.19	0.184
952.62	0.191
953.04	0.187
953.47	0.193
953.89	0.198
954.32	0.201
954.74	0.197
955.17	0.200
955.59	0.205
956.01	0.207
956.44	0.213
956.86	0.212
957.29	0.222
957.71	0.220
958.14	0.222
958.56	0.222
958.98	0.225
959.41	0.226
959.83	0.224
960.26	0.227
960.68	0.227
961.10	0.226
961.53	0.233
961.95	0.237
962.38	0.238
962.80	0.242
963.22	0.246
963.65	0.243
964.07	0.243
964.50	0.238
964.92	0.245
965.34	0.240
965.77	0.244
966.19	0.248
966.61	0.251
967.04	0.245
967.46	0.243
967.88	0.247
968.31	0.245
968.73	0.252
969.15	0.253
969.58	0.251
970.00	0.248
970.42	0.248
970.85	0.255
971.27	0.254
971.69	0.247
972.12	0.251
972.54	0.255
972.96	0.244
973.39	0.254
973.81	0.257
974.23	0.256
974.65	0.257
975.08	0.255
975.50	0.251
975.92	0.258
976.35	0.253
976.77	0.255
977.19	0.252
977.61	0.251
978.04	0.258
978.46	0.256
978.88	0.252
979.30	0.252
979.73	0.254
980.15	0.255
980.57	0.249
980.99	0.257
981.42	0.243
981.84	0.253
982.26	0.249
982.68	0.249
983.11	0.242
983.53	0.248
983.95	0.251
984.37	0.248
984.79	0.250
985.22	0.254
985.64	0.247
986.06	0.243
986.48	0.255
986.90	0.252
987.33	0.247
987.75	0.238
988.17	0.242
988.59	0.241
989.01	0.239
989.43	0.243
989.86	0.251
990.28	0.245
990.70	0.240
991.12	0.246
991.54	0.236
991.96	0.235
992.39	0.236
992.81	0.240
993.23	0.233
993.65	0.230
994.07	0.230
994.49	0.240
994.91	0.237
995.34	0.231
995.76	0.234
996.18	0.232
996.60	0.228
997.02	0.230
997.44	0.228
997.86	0.224
998.28	0.225
998.70	0.231
999.12	0.234
999.55	0.233
999.97	0.238
1000.39	0.223
1000.81	0.228
1001.23	0.228
1001.65	0.229
1002.07	0.220
1002.49	0.230
1002.91	0.227
1003.33	0.225
1003.75	0.218
1004.17	0.222
1004.59	0.222
1005.01	0.209
1005.43	0.227
1005.85	0.206
1006.28	0.223
1006.70	0.220
1007.12	0.216
1007.54	0.214
1007.96	0.214
1008.38	0.208
1008.80	0.204
1009.22	0.203
1009.64	0.214
1010.06	0.201
1010.48	0.203
1010.90	0.207
1011.32	0.204
1011.74	0.200
1012.16	0.207
1012.58	0.203
1013.00	0.206
1013.42	0.205
1013.84	0.195
1014.26	0.196
1014.67	0.203
1015.09	0.204
1015.51	0.202
1015.93	0.198
1016.35	0.196
1016.77	0.198
1017.19	0.187
1017.61	0.178
1018.03	0.190
1018.45	0.177
1018.87	0.185
1019.29	0.201
1019.71	0.179
1020.13	0.190
1020.55	0.182
1020.97	0.186
1021.38	0.184
1021.80	0.184
1022.22	0.187
1022.64	0.183
1023.06	0.166
1023.48	0.168
1023.90	0.174
1024.32	0.165
1024.74	0.177
1025.15	0.170
1025.57	0.161
1025.99	0.162
1026.41	0.164
1026.83	0.178
1027.25	0.173
1027.67	0.162
1028.08	0.163
1028.50	0.178
1028.92	0.158
1029.34	0.160
1029.76	0.159
1030.18	0.167
1030.60	0.155
1031.01	0.162
1031.43	0.169
1031.85	0.148
1032.27	0.155
1032.69	0.146
1033.10	0.156
1033.52	0.167
1033.94	0.160
1034.36	0.147
1034.78	0.149
1035.19	0.159
1035.61	0.147
1036.03	0.141
1036.45	0.129
1036.87	0.135
1037.28	0.135
1037.70	0.154
1038.12	0.167
1038.54	0.136
1038.95	0.142
1039.37	0.138
1039.79	0.135
1040.21	0.134
1040.62	0.147
1041.04	0.145
1041.46	0.128
1041.88	0.142
1042.29	0.139
1042.71	0.132
1043.13	0.115
1043.55	0.128
1043.96	0.158
1044.38	0.142
1044.80	0.120
1045.21	0.115
1045.63	0.132
1046.05	0.120
1046.47	0.133
1046.88	0.132
1047.30	0.130
1047.72	0.127
1048.13	0.139
1048.55	0.140
1048.97	0.143
1049.38	0.123
1049.80	0.124
1050.22	0.120
1050.63	0.135
1051.05	0.131
1051.47	0.120
1051.88	0.135
1052.30	0.136
1052.72	0.138
1053.13	0.123
1053.55	0.118
1053.97	0.141
1054.38	0.153
1054.80	0.141
1055.21	0.121
1055.63	0.162
1056.05	0.146
1056.46	0.157
1056.88	0.138
1057.29	0.118
1057.71	0.128
1058.13	0.114
1058.54	0.146
1058.96	0.138
1059.37	0.155
1059.79	0.122
1060.21	0.157
1060.62	0.161
1061.04	0.165
1061.45	0.136
1061.87	0.146
1062.28	0.111
1062.70	0.156
1063.12	0.155
1063.53	0.131
1063.95	0.139
1064.36	0.174
1064.78	0.161
1065.19	0.178
1065.61	0.175
1066.02	0.203
1066.44	0.195
1066.85	0.150
1067.27	0.215
1067.68	0.221
1068.10	0.170
1068.51	0.180
1068.93	0.280
1069.35	0.244
1069.76	0.125
1070.17	0.132
1070.59	0.151
1071.00	0.273
1071.42	0.162
1071.83	0.199
1072.25	0.249
1072.66	0.256
1073.08	0.359
1073.49	0.242
1073.91	0.180
1074.32	0.171
1074.74	0.148
1075.15	0.331
1075.57	0.291
1075.98	0.327
1076.40	0.303
1076.81	0.161
1077.22	0.252
1077.64	0.233
1078.05	0.107
1078.47	0.620
1078.88	0.247
1079.30	0.257
1079.71	0.220
1080.12	0.311
1080.54	0.517
1080.95	0.477
1081.37	-0.000
1081.78	0.922
1082.19	0.829
1082.61	0.505
1083.02	0.296
1083.44	0.212
1083.85	0.458
1084.26	0.516
1084.68	0.286
1085.09	0.853
1085.50	0.409
1085.92	-0.000
1086.33	0.114
1086.74	0.375
1087.16	-0.000
1087.57	-0.000
1087.98	1.193
1088.40	0.639
1088.81	-0.000
1089.22	0.426
1089.64	0.613
1090.05	-0.000
1090.46	-0.000
1090.88	0.782
1091.29	-0.000
1091.70	-0.000
1092.12	1.116
1092.53	0.468
1092.94	0.396
1093.36	0.611
1093.77	0.457
1094.18	-0.000
1094.59	-0.000
1095.01	-0.000
1095.42	0.419
1095.83	0.962
1096.25	0.179
1096.66	0.561
1097.07	0.378
1097.48	0.309
1097.90	0.180
1098.31	0.168
1098.72	-0.000
1099.13	1.553
>>>>>End Processed Spectral Data<<<<<
