SpectraSuite Data File
++++++++++++++++++++++++++++++++++++
Date: Mon Jul 10 14:21:17 CEST 2017
User: IPCE
Dark Spectrum Present: Yes
Reference Spectrum Present: Yes
Number of Sampled Component Spectra: 1
Spectrometers: HR+C0708
Integration Time (usec): 1000 (HR+C0708)
Spectra Averaged: 10 (HR+C0708)
Boxcar Smoothing: 0 (HR+C0708)
Correct for Electrical Dark: No (HR+C0708)
Strobe/Lamp Enabled: No (HR+C0708)
Correct for Detector Non-linearity: No (HR+C0708)
Correct for Stray Light: No (HR+C0708)
Number of Pixels in Processed Spectrum: 2048
>>>>>Begin Processed Spectral Data<<<<<
188.76	1.243
189.23	1.585
189.70	-0.000
190.17	1.298
190.64	-0.000
191.12	-0.000
191.59	-0.000
192.06	-0.000
192.53	-0.000
193.01	-0.000
193.48	-0.000
193.95	1.021
194.42	-0.000
194.90	2.124
195.37	-0.000
195.84	-0.000
196.31	-0.000
196.78	-0.000
197.26	0.667
197.73	0.802
198.20	-0.000
198.67	0.666
199.14	0.329
199.62	-0.000
200.09	2.342
200.56	0.756
201.03	1.089
201.50	0.906
201.97	0.617
202.45	0.884
202.92	-0.000
203.39	1.400
203.86	0.483
204.33	0.557
204.80	0.890
205.28	1.033
205.75	-0.000
206.22	0.749
206.69	0.668
207.16	0.582
207.63	0.495
208.11	0.797
208.58	0.677
209.05	0.491
209.52	0.547
209.99	-0.000
210.46	0.502
210.93	0.656
211.41	0.686
211.88	0.605
212.35	0.437
212.82	0.681
213.29	0.806
213.76	0.955
214.23	1.154
214.70	0.761
215.18	-0.000
215.65	0.772
216.12	0.680
216.59	0.765
217.06	0.802
217.53	0.656
218.00	0.692
218.47	0.575
218.94	1.161
219.41	0.631
219.89	0.943
220.36	0.504
220.83	0.488
221.30	0.857
221.77	0.771
222.24	0.836
222.71	1.085
223.18	0.748
223.65	0.814
224.12	0.797
224.59	0.899
225.06	0.958
225.54	1.048
226.01	1.301
226.48	1.128
226.95	-0.000
227.42	1.044
227.89	1.417
228.36	-0.000
228.83	1.492
229.30	1.266
229.77	1.291
230.24	1.664
230.71	1.742
231.18	1.561
231.65	1.936
232.12	1.841
232.59	1.671
233.06	1.572
233.53	1.714
234.00	2.124
234.47	1.740
234.94	1.731
235.41	1.824
235.88	2.064
236.35	1.834
236.82	1.965
237.29	2.602
237.76	2.216
238.23	2.388
238.70	2.476
239.17	2.131
239.64	2.133
240.11	2.417
240.58	2.359
241.05	2.321
241.52	2.244
241.99	2.410
242.46	2.523
242.93	2.503
243.40	2.531
243.87	2.978
244.34	3.149
244.81	2.502
245.28	2.757
245.75	2.462
246.22	2.667
246.69	2.620
247.16	2.908
247.63	2.940
248.10	2.894
248.57	2.874
249.04	2.683
249.51	2.959
249.98	2.539
250.45	3.129
250.92	2.744
251.39	2.909
251.85	2.541
252.32	2.672
252.79	-0.000
253.26	2.439
253.73	2.730
254.20	2.456
254.67	2.360
255.14	2.541
255.61	2.873
256.08	2.797
256.55	2.774
257.02	2.831
257.49	3.252
257.95	3.074
258.42	2.631
258.89	2.853
259.36	3.273
259.83	2.705
260.30	2.764
260.77	2.781
261.24	2.902
261.71	2.818
262.17	2.764
262.64	2.931
263.11	2.759
263.58	2.911
264.05	2.834
264.52	2.722
264.99	2.721
265.46	2.647
265.92	3.039
266.39	2.888
266.86	3.075
267.33	3.149
267.80	2.706
268.27	2.689
268.74	2.738
269.20	2.791
269.67	2.839
270.14	2.780
270.61	2.628
271.08	2.867
271.55	2.899
272.01	2.624
272.48	2.645
272.95	2.612
273.42	2.894
273.89	2.546
274.36	2.743
274.82	2.708
275.29	2.726
275.76	2.737
276.23	2.718
276.70	2.510
277.16	2.676
277.63	2.760
278.10	2.681
278.57	2.801
279.04	2.761
279.50	2.494
279.97	2.599
280.44	2.428
280.91	2.606
281.38	2.639
281.84	2.600
282.31	2.518
282.78	2.493
283.25	2.437
283.72	2.511
284.18	2.531
284.65	2.702
285.12	2.451
285.59	2.518
286.05	2.416
286.52	2.599
286.99	2.432
287.46	2.391
287.92	2.520
288.39	2.358
288.86	2.450
289.33	2.533
289.79	2.498
290.26	2.394
290.73	2.335
291.20	2.368
291.66	2.392
292.13	2.419
292.60	2.340
293.07	2.422
293.53	2.307
294.00	2.287
294.47	2.298
294.93	2.294
295.40	2.345
295.87	2.291
296.34	2.387
296.80	2.287
297.27	2.262
297.74	2.289
298.20	2.344
298.67	2.271
299.14	2.269
299.60	2.301
300.07	2.274
300.54	2.274
301.01	2.224
301.47	2.231
301.94	2.177
302.41	2.236
302.87	2.183
303.34	2.246
303.81	2.105
304.27	2.148
304.74	2.191
305.21	2.082
305.67	2.122
306.14	2.135
306.61	2.096
307.07	2.140
307.54	2.078
308.01	2.171
308.47	2.148
308.94	2.114
309.40	2.103
309.87	2.116
310.34	2.044
310.80	2.089
311.27	2.083
311.74	2.075
312.20	2.088
312.67	2.105
313.13	2.101
313.60	2.060
314.07	2.048
314.53	2.020
315.00	2.092
315.47	2.054
315.93	2.066
316.40	2.010
316.86	2.044
317.33	2.027
317.80	2.012
318.26	2.050
318.73	2.040
319.19	2.012
319.66	1.964
320.13	2.023
320.59	1.965
321.06	1.955
321.52	1.980
321.99	1.942
322.45	1.976
322.92	1.981
323.39	1.921
323.85	1.953
324.32	1.967
324.78	1.909
325.25	1.922
325.71	1.900
326.18	1.874
326.64	1.913
327.11	1.884
327.58	1.925
328.04	1.854
328.51	1.829
328.97	1.870
329.44	1.834
329.90	1.794
330.37	1.834
330.83	1.788
331.30	1.821
331.76	1.808
332.23	1.734
332.69	1.754
333.16	1.723
333.62	1.746
334.09	1.737
334.56	1.681
335.02	1.665
335.49	1.654
335.95	1.594
336.42	1.567
336.88	1.556
337.35	1.532
337.81	1.487
338.28	1.462
338.74	1.455
339.20	1.434
339.67	1.403
340.13	1.380
340.60	1.359
341.06	1.323
341.53	1.290
341.99	1.252
342.46	1.222
342.92	1.191
343.39	1.173
343.85	1.140
344.32	1.117
344.78	1.086
345.25	1.068
345.71	1.043
346.17	1.011
346.64	0.983
347.10	0.952
347.57	0.925
348.03	0.900
348.50	0.876
348.96	0.858
349.43	0.830
349.89	0.809
350.35	0.799
350.82	0.780
351.28	0.768
351.75	0.738
352.21	0.732
352.67	0.710
353.14	0.692
353.60	0.671
354.07	0.667
354.53	0.649
355.00	0.639
355.46	0.622
355.92	0.619
356.39	0.607
356.85	0.595
357.31	0.584
357.78	0.573
358.24	0.569
358.71	0.562
359.17	0.550
359.63	0.550
360.10	0.542
360.56	0.539
361.03	0.532
361.49	0.527
361.95	0.524
362.42	0.521
362.88	0.519
363.34	0.514
363.81	0.510
364.27	0.511
364.73	0.504
365.20	0.503
365.66	0.501
366.12	0.498
366.59	0.491
367.05	0.490
367.51	0.492
367.98	0.488
368.44	0.487
368.90	0.484
369.37	0.483
369.83	0.478
370.29	0.479
370.76	0.478
371.22	0.475
371.68	0.469
372.15	0.468
372.61	0.467
373.07	0.469
373.54	0.465
374.00	0.463
374.46	0.463
374.92	0.458
375.39	0.457
375.85	0.456
376.31	0.456
376.78	0.451
377.24	0.450
377.70	0.448
378.16	0.447
378.63	0.447
379.09	0.445
379.55	0.445
380.01	0.443
380.48	0.440
380.94	0.438
381.40	0.435
381.87	0.434
382.33	0.440
382.79	0.437
383.25	0.431
383.72	0.432
384.18	0.427
384.64	0.429
385.10	0.427
385.56	0.422
386.03	0.425
386.49	0.423
386.95	0.420
387.41	0.420
387.88	0.422
388.34	0.419
388.80	0.417
389.26	0.414
389.72	0.415
390.19	0.413
390.65	0.411
391.11	0.411
391.57	0.405
392.04	0.408
392.50	0.408
392.96	0.406
393.42	0.401
393.88	0.402
394.34	0.407
394.81	0.402
395.27	0.400
395.73	0.396
396.19	0.395
396.65	0.396
397.12	0.394
397.58	0.391
398.04	0.396
398.50	0.393
398.96	0.390
399.42	0.390
399.89	0.391
400.35	0.388
400.81	0.388
401.27	0.386
401.73	0.382
402.19	0.381
402.65	0.380
403.12	0.379
403.58	0.380
404.04	0.379
404.50	0.380
404.96	0.375
405.42	0.375
405.88	0.373
406.34	0.371
406.81	0.372
407.27	0.372
407.73	0.369
408.19	0.369
408.65	0.365
409.11	0.365
409.57	0.363
410.03	0.361
410.49	0.361
410.96	0.365
411.42	0.361
411.88	0.361
412.34	0.359
412.80	0.359
413.26	0.359
413.72	0.357
414.18	0.355
414.64	0.357
415.10	0.352
415.56	0.357
416.02	0.352
416.48	0.351
416.95	0.347
417.41	0.350
417.87	0.348
418.33	0.348
418.79	0.346
419.25	0.345
419.71	0.345
420.17	0.346
420.63	0.344
421.09	0.344
421.55	0.342
422.01	0.341
422.47	0.342
422.93	0.342
423.39	0.338
423.85	0.337
424.31	0.335
424.77	0.336
425.23	0.334
425.69	0.332
426.15	0.334
426.61	0.331
427.07	0.334
427.53	0.333
427.99	0.329
428.45	0.328
428.91	0.327
429.37	0.327
429.83	0.328
430.29	0.327
430.75	0.328
431.21	0.327
431.67	0.325
432.13	0.322
432.59	0.318
433.05	0.319
433.51	0.319
433.97	0.317
434.43	0.317
434.89	0.316
435.35	0.314
435.81	0.313
436.27	0.313
436.73	0.310
437.19	0.312
437.65	0.312
438.11	0.311
438.57	0.312
439.03	0.308
439.48	0.310
439.94	0.308
440.40	0.308
440.86	0.305
441.32	0.306
441.78	0.304
442.24	0.302
442.70	0.299
443.16	0.302
443.62	0.301
444.08	0.301
444.54	0.300
444.99	0.301
445.45	0.300
445.91	0.297
446.37	0.299
446.83	0.295
447.29	0.292
447.75	0.292
448.21	0.294
448.67	0.292
449.12	0.289
449.58	0.292
450.04	0.291
450.50	0.288
450.96	0.288
451.42	0.287
451.88	0.287
452.34	0.287
452.79	0.286
453.25	0.287
453.71	0.284
454.17	0.285
454.63	0.281
455.09	0.281
455.55	0.283
456.00	0.280
456.46	0.279
456.92	0.278
457.38	0.277
457.84	0.275
458.30	0.276
458.75	0.279
459.21	0.276
459.67	0.279
460.13	0.274
460.59	0.272
461.04	0.275
461.50	0.275
461.96	0.272
462.42	0.272
462.88	0.272
463.33	0.267
463.79	0.271
464.25	0.270
464.71	0.270
465.17	0.270
465.62	0.265
466.08	0.269
466.54	0.267
467.00	0.269
467.46	0.266
467.91	0.265
468.37	0.264
468.83	0.264
469.29	0.264
469.74	0.261
470.20	0.262
470.66	0.262
471.12	0.264
471.57	0.263
472.03	0.259
472.49	0.262
472.95	0.261
473.40	0.254
473.86	0.258
474.32	0.259
474.78	0.255
475.23	0.254
475.69	0.256
476.15	0.255
476.60	0.255
477.06	0.251
477.52	0.255
477.98	0.251
478.43	0.252
478.89	0.251
479.35	0.250
479.80	0.250
480.26	0.253
480.72	0.250
481.18	0.247
481.63	0.249
482.09	0.244
482.55	0.247
483.00	0.247
483.46	0.245
483.92	0.246
484.37	0.246
484.83	0.244
485.29	0.246
485.74	0.242
486.20	0.244
486.66	0.245
487.11	0.244
487.57	0.240
488.03	0.243
488.48	0.240
488.94	0.241
489.40	0.241
489.85	0.242
490.31	0.242
490.77	0.238
491.22	0.238
491.68	0.237
492.13	0.237
492.59	0.238
493.05	0.237
493.50	0.235
493.96	0.234
494.42	0.234
494.87	0.236
495.33	0.236
495.78	0.236
496.24	0.233
496.70	0.232
497.15	0.235
497.61	0.233
498.06	0.232
498.52	0.228
498.98	0.233
499.43	0.232
499.89	0.232
500.34	0.230
500.80	0.232
501.25	0.229
501.71	0.227
502.17	0.228
502.62	0.227
503.08	0.227
503.53	0.227
503.99	0.225
504.44	0.226
504.90	0.224
505.36	0.224
505.81	0.225
506.27	0.226
506.72	0.224
507.18	0.224
507.63	0.222
508.09	0.225
508.54	0.221
509.00	0.222
509.45	0.222
509.91	0.220
510.36	0.221
510.82	0.219
511.27	0.220
511.73	0.220
512.19	0.220
512.64	0.219
513.10	0.218
513.55	0.217
514.01	0.217
514.46	0.217
514.92	0.219
515.37	0.214
515.83	0.215
516.28	0.215
516.73	0.214
517.19	0.211
517.64	0.215
518.10	0.214
518.55	0.214
519.01	0.211
519.46	0.210
519.92	0.211
520.37	0.210
520.83	0.213
521.28	0.211
521.74	0.210
522.19	0.206
522.65	0.211
523.10	0.210
523.55	0.210
524.01	0.208
524.46	0.208
524.92	0.209
525.37	0.208
525.83	0.207
526.28	0.204
526.73	0.207
527.19	0.206
527.64	0.205
528.10	0.204
528.55	0.205
529.01	0.205
529.46	0.205
529.91	0.203
530.37	0.205
530.82	0.202
531.28	0.201
531.73	0.201
532.18	0.201
532.64	0.202
533.09	0.201
533.54	0.202
534.00	0.200
534.45	0.200
534.91	0.200
535.36	0.199
535.81	0.200
536.27	0.200
536.72	0.200
537.17	0.199
537.63	0.200
538.08	0.200
538.54	0.197
538.99	0.197
539.44	0.197
539.90	0.197
540.35	0.198
540.80	0.198
541.26	0.194
541.71	0.191
542.16	0.195
542.62	0.197
543.07	0.194
543.52	0.193
543.98	0.194
544.43	0.194
544.88	0.196
545.34	0.192
545.79	0.192
546.24	0.194
546.69	0.191
547.15	0.192
547.60	0.191
548.05	0.194
548.51	0.190
548.96	0.191
549.41	0.190
549.86	0.190
550.32	0.193
550.77	0.188
551.22	0.190
551.68	0.190
552.13	0.188
552.58	0.189
553.03	0.189
553.49	0.188
553.94	0.190
554.39	0.188
554.84	0.186
555.30	0.187
555.75	0.184
556.20	0.188
556.65	0.187
557.11	0.186
557.56	0.184
558.01	0.186
558.46	0.185
558.92	0.186
559.37	0.186
559.82	0.184
560.27	0.185
560.72	0.185
561.18	0.184
561.63	0.184
562.08	0.183
562.53	0.182
562.99	0.183
563.44	0.183
563.89	0.181
564.34	0.182
564.79	0.181
565.25	0.180
565.70	0.183
566.15	0.180
566.60	0.177
567.05	0.182
567.50	0.183
567.96	0.182
568.41	0.179
568.86	0.180
569.31	0.180
569.76	0.182
570.21	0.180
570.67	0.177
571.12	0.180
571.57	0.179
572.02	0.177
572.47	0.177
572.92	0.177
573.37	0.178
573.83	0.176
574.28	0.177
574.73	0.176
575.18	0.176
575.63	0.174
576.08	0.177
576.53	0.175
576.98	0.176
577.44	0.174
577.89	0.175
578.34	0.178
578.79	0.174
579.24	0.175
579.69	0.174
580.14	0.175
580.59	0.173
581.04	0.173
581.49	0.174
581.95	0.172
582.40	0.172
582.85	0.174
583.30	0.174
583.75	0.173
584.20	0.175
584.65	0.172
585.10	0.171
585.55	0.175
586.00	0.171
586.45	0.172
586.90	0.173
587.35	0.172
587.80	0.172
588.25	0.172
588.71	0.172
589.16	0.173
589.61	0.172
590.06	0.172
590.51	0.175
590.96	0.170
591.41	0.171
591.86	0.173
592.31	0.173
592.76	0.170
593.21	0.171
593.66	0.172
594.11	0.172
594.56	0.172
595.01	0.171
595.46	0.171
595.91	0.172
596.36	0.169
596.81	0.170
597.26	0.171
597.71	0.171
598.16	0.170
598.61	0.172
599.06	0.171
599.51	0.170
599.96	0.170
600.41	0.171
600.86	0.171
601.31	0.171
601.76	0.172
602.21	0.171
602.65	0.169
603.10	0.169
603.55	0.171
604.00	0.170
604.45	0.170
604.90	0.170
605.35	0.171
605.80	0.169
606.25	0.171
606.70	0.169
607.15	0.170
607.60	0.169
608.05	0.171
608.50	0.169
608.95	0.169
609.39	0.169
609.84	0.170
610.29	0.169
610.74	0.169
611.19	0.168
611.64	0.169
612.09	0.164
612.54	0.167
612.99	0.169
613.44	0.168
613.88	0.167
614.33	0.167
614.78	0.166
615.23	0.167
615.68	0.168
616.13	0.168
616.58	0.168
617.03	0.166
617.47	0.168
617.92	0.166
618.37	0.166
618.82	0.166
619.27	0.165
619.72	0.166
620.17	0.164
620.61	0.164
621.06	0.164
621.51	0.167
621.96	0.164
622.41	0.166
622.86	0.164
623.30	0.165
623.75	0.166
624.20	0.166
624.65	0.166
625.10	0.164
625.54	0.163
625.99	0.163
626.44	0.166
626.89	0.164
627.34	0.164
627.78	0.163
628.23	0.163
628.68	0.163
629.13	0.162
629.58	0.162
630.02	0.163
630.47	0.163
630.92	0.165
631.37	0.164
631.81	0.164
632.26	0.164
632.71	0.162
633.16	0.164
633.61	0.163
634.05	0.163
634.50	0.163
634.95	0.164
635.40	0.164
635.84	0.165
636.29	0.164
636.74	0.165
637.18	0.164
637.63	0.163
638.08	0.164
638.53	0.164
638.97	0.163
639.42	0.166
639.87	0.164
640.32	0.164
640.76	0.163
641.21	0.165
641.66	0.164
642.10	0.165
642.55	0.164
643.00	0.165
643.44	0.164
643.89	0.164
644.34	0.164
644.79	0.164
645.23	0.163
645.68	0.167
646.13	0.167
646.57	0.165
647.02	0.166
647.47	0.166
647.91	0.167
648.36	0.165
648.81	0.167
649.25	0.166
649.70	0.165
650.15	0.166
650.59	0.166
651.04	0.165
651.48	0.166
651.93	0.166
652.38	0.168
652.82	0.167
653.27	0.165
653.72	0.167
654.16	0.168
654.61	0.166
655.06	0.167
655.50	0.164
655.95	0.163
656.39	0.167
656.84	0.168
657.29	0.167
657.73	0.166
658.18	0.168
658.62	0.165
659.07	0.167
659.52	0.167
659.96	0.168
660.41	0.168
660.85	0.166
661.30	0.166
661.74	0.165
662.19	0.168
662.64	0.170
663.08	0.168
663.53	0.169
663.97	0.165
664.42	0.165
664.86	0.166
665.31	0.167
665.75	0.165
666.20	0.167
666.65	0.168
667.09	0.165
667.54	0.164
667.98	0.164
668.43	0.163
668.87	0.163
669.32	0.160
669.76	0.161
670.21	0.161
670.65	0.163
671.10	0.162
671.54	0.161
671.99	0.160
672.43	0.159
672.88	0.156
673.32	0.156
673.77	0.159
674.21	0.157
674.66	0.156
675.10	0.155
675.55	0.152
675.99	0.153
676.44	0.154
676.88	0.152
677.33	0.151
677.77	0.149
678.22	0.147
678.66	0.147
679.11	0.146
679.55	0.146
679.99	0.146
680.44	0.144
680.88	0.143
681.33	0.143
681.77	0.142
682.22	0.140
682.66	0.140
683.11	0.138
683.55	0.139
683.99	0.139
684.44	0.139
684.88	0.136
685.33	0.137
685.77	0.135
686.21	0.135
686.66	0.134
687.10	0.133
687.55	0.133
687.99	0.133
688.44	0.131
688.88	0.131
689.32	0.128
689.77	0.129
690.21	0.131
690.65	0.127
691.10	0.126
691.54	0.128
691.99	0.127
692.43	0.125
692.87	0.127
693.32	0.126
693.76	0.124
694.20	0.125
694.65	0.126
695.09	0.124
695.53	0.124
695.98	0.124
696.42	0.122
696.86	0.119
697.31	0.122
697.75	0.124
698.19	0.123
698.64	0.121
699.08	0.122
699.52	0.121
699.97	0.119
700.41	0.120
700.85	0.122
701.30	0.120
701.74	0.118
702.18	0.121
702.63	0.120
703.07	0.120
703.51	0.121
703.96	0.118
704.40	0.121
704.84	0.118
705.28	0.117
705.73	0.119
706.17	0.117
706.61	0.117
707.06	0.118
707.50	0.117
707.94	0.116
708.38	0.116
708.83	0.118
709.27	0.116
709.71	0.114
710.15	0.118
710.60	0.116
711.04	0.115
711.48	0.116
711.92	0.113
712.37	0.117
712.81	0.117
713.25	0.117
713.69	0.117
714.13	0.117
714.58	0.115
715.02	0.119
715.46	0.113
715.90	0.114
716.35	0.115
716.79	0.114
717.23	0.114
717.67	0.114
718.11	0.117
718.56	0.113
719.00	0.114
719.44	0.115
719.88	0.117
720.32	0.115
720.76	0.113
721.21	0.112
721.65	0.113
722.09	0.114
722.53	0.114
722.97	0.115
723.41	0.114
723.86	0.115
724.30	0.116
724.74	0.115
725.18	0.116
725.62	0.115
726.06	0.112
726.50	0.115
726.95	0.117
727.39	0.114
727.83	0.117
728.27	0.114
728.71	0.114
729.15	0.113
729.59	0.116
730.03	0.113
730.48	0.116
730.92	0.112
731.36	0.116
731.80	0.114
732.24	0.112
732.68	0.115
733.12	0.118
733.56	0.115
734.00	0.116
734.44	0.116
734.89	0.113
735.33	0.114
735.77	0.115
736.21	0.116
736.65	0.115
737.09	0.115
737.53	0.116
737.97	0.114
738.41	0.116
738.85	0.116
739.29	0.115
739.73	0.115
740.17	0.117
740.61	0.117
741.05	0.115
741.49	0.115
741.93	0.113
742.37	0.117
742.81	0.113
743.26	0.116
743.70	0.114
744.14	0.113
744.58	0.116
745.02	0.112
745.46	0.113
745.90	0.115
746.34	0.116
746.78	0.112
747.22	0.112
747.66	0.115
748.10	0.114
748.54	0.114
748.98	0.112
749.42	0.115
749.86	0.114
750.29	0.113
750.73	0.110
751.17	0.113
751.61	0.112
752.05	0.114
752.49	0.112
752.93	0.108
753.37	0.113
753.81	0.114
754.25	0.109
754.69	0.111
755.13	0.110
755.57	0.111
756.01	0.110
756.45	0.110
756.89	0.109
757.33	0.115
757.77	0.111
758.21	0.108
758.64	0.112
759.08	0.107
759.52	0.110
759.96	0.106
760.40	0.109
760.84	0.110
761.28	0.110
761.72	0.111
762.16	0.110
762.60	0.110
763.03	0.109
763.47	0.108
763.91	0.108
764.35	0.105
764.79	0.106
765.23	0.110
765.67	0.109
766.11	0.106
766.54	0.111
766.98	0.111
767.42	0.109
767.86	0.110
768.30	0.109
768.74	0.107
769.17	0.108
769.61	0.106
770.05	0.109
770.49	0.108
770.93	0.105
771.37	0.105
771.80	0.108
772.24	0.104
772.68	0.108
773.12	0.108
773.56	0.105
774.00	0.106
774.43	0.106
774.87	0.106
775.31	0.106
775.75	0.106
776.19	0.105
776.62	0.107
777.06	0.104
777.50	0.105
777.94	0.105
778.37	0.108
778.81	0.104
779.25	0.107
779.69	0.103
780.13	0.109
780.56	0.105
781.00	0.109
781.44	0.106
781.88	0.104
782.31	0.106
782.75	0.105
783.19	0.104
783.63	0.104
784.06	0.104
784.50	0.102
784.94	0.108
785.37	0.101
785.81	0.105
786.25	0.102
786.69	0.106
787.12	0.104
787.56	0.103
788.00	0.103
788.43	0.100
788.87	0.106
789.31	0.103
789.75	0.102
790.18	0.102
790.62	0.102
791.06	0.102
791.49	0.103
791.93	0.101
792.37	0.106
792.80	0.103
793.24	0.100
793.68	0.102
794.11	0.102
794.55	0.102
794.99	0.100
795.42	0.099
795.86	0.098
796.30	0.099
796.73	0.099
797.17	0.105
797.61	0.098
798.04	0.099
798.48	0.101
798.91	0.098
799.35	0.101
799.79	0.099
800.22	0.102
800.66	0.098
801.10	0.099
801.53	0.100
801.97	0.098
802.40	0.098
802.84	0.102
803.28	0.102
803.71	0.101
804.15	0.097
804.58	0.100
805.02	0.100
805.46	0.097
805.89	0.101
806.33	0.098
806.76	0.099
807.20	0.098
807.63	0.102
808.07	0.097
808.51	0.097
808.94	0.102
809.38	0.097
809.81	0.099
810.25	0.099
810.68	0.097
811.12	0.103
811.55	0.101
811.99	0.103
812.42	0.098
812.86	0.099
813.29	0.102
813.73	0.097
814.17	0.098
814.60	0.100
815.04	0.098
815.47	0.097
815.91	0.101
816.34	0.096
816.78	0.097
817.21	0.095
817.65	0.099
818.08	0.097
818.52	0.095
818.95	0.096
819.39	0.099
819.82	0.095
820.25	0.096
820.69	0.095
821.12	0.096
821.56	0.092
821.99	0.099
822.43	0.098
822.86	0.095
823.30	0.094
823.73	0.097
824.17	0.094
824.60	0.093
825.04	0.098
825.47	0.101
825.90	0.095
826.34	0.097
826.77	0.097
827.21	0.101
827.64	0.097
828.08	0.101
828.51	0.100
828.94	0.097
829.38	0.097
829.81	0.102
830.25	0.103
830.68	0.102
831.11	0.096
831.55	0.104
831.98	0.104
832.42	0.100
832.85	0.106
833.28	0.107
833.72	0.104
834.15	0.097
834.58	0.097
835.02	0.105
835.45	0.102
835.88	0.099
836.32	0.099
836.75	0.103
837.19	0.096
837.62	0.101
838.05	0.098
838.49	0.101
838.92	0.103
839.35	0.101
839.79	0.107
840.22	0.105
840.65	0.104
841.09	0.107
841.52	0.105
841.95	0.101
842.39	0.103
842.82	0.106
843.25	0.102
843.68	0.110
844.12	0.102
844.55	0.101
844.98	0.104
845.42	0.099
845.85	0.102
846.28	0.101
846.71	0.102
847.15	0.105
847.58	0.101
848.01	0.103
848.45	0.103
848.88	0.108
849.31	0.097
849.74	0.104
850.18	0.097
850.61	0.102
851.04	0.107
851.47	0.100
851.91	0.113
852.34	0.103
852.77	0.100
853.20	0.102
853.64	0.104
854.07	0.106
854.50	0.105
854.93	0.104
855.36	0.105
855.80	0.110
856.23	0.105
856.66	0.106
857.09	0.103
857.52	0.098
857.96	0.098
858.39	0.105
858.82	0.104
859.25	0.105
859.68	0.103
860.12	0.101
860.55	0.107
860.98	0.111
861.41	0.108
861.84	0.106
862.27	0.103
862.71	0.102
863.14	0.100
863.57	0.107
864.00	0.106
864.43	0.105
864.86	0.108
865.30	0.101
865.73	0.105
866.16	0.101
866.59	0.101
867.02	0.103
867.45	0.100
867.88	0.099
868.31	0.099
868.75	0.108
869.18	0.107
869.61	0.110
870.04	0.107
870.47	0.098
870.90	0.103
871.33	0.110
871.76	0.104
872.19	0.110
872.62	0.112
873.06	0.109
873.49	0.104
873.92	0.103
874.35	0.107
874.78	0.105
875.21	0.102
875.64	0.106
876.07	0.105
876.50	0.105
876.93	0.108
877.36	0.107
877.79	0.100
878.22	0.105
878.65	0.107
879.08	0.106
879.51	0.108
879.94	0.108
880.37	0.110
880.80	0.110
881.23	0.108
881.67	0.109
882.10	0.108
882.53	0.113
882.96	0.099
883.39	0.108
883.82	0.110
884.25	0.109
884.68	0.107
885.11	0.100
885.54	0.103
885.97	0.106
886.39	0.102
886.82	0.108
887.25	0.109
887.68	0.111
888.11	0.109
888.54	0.116
888.97	0.109
889.40	0.110
889.83	0.107
890.26	0.111
890.69	0.110
891.12	0.102
891.55	0.108
891.98	0.105
892.41	0.111
892.84	0.107
893.27	0.105
893.70	0.106
894.13	0.107
894.56	0.110
894.98	0.111
895.41	0.107
895.84	0.111
896.27	0.113
896.70	0.112
897.13	0.114
897.56	0.114
897.99	0.113
898.42	0.108
898.85	0.112
899.27	0.112
899.70	0.112
900.13	0.112
900.56	0.116
900.99	0.109
901.42	0.111
901.85	0.113
902.28	0.115
902.70	0.110
903.13	0.112
903.56	0.112
903.99	0.112
904.42	0.114
904.85	0.114
905.27	0.113
905.70	0.111
906.13	0.114
906.56	0.118
906.99	0.114
907.42	0.110
907.84	0.116
908.27	0.112
908.70	0.111
909.13	0.113
909.56	0.110
909.98	0.109
910.41	0.113
910.84	0.109
911.27	0.114
911.70	0.106
912.12	0.110
912.55	0.110
912.98	0.109
913.41	0.110
913.84	0.109
914.26	0.109
914.69	0.114
915.12	0.111
915.55	0.112
915.97	0.113
916.40	0.111
916.83	0.114
917.26	0.113
917.68	0.113
918.11	0.113
918.54	0.110
918.97	0.112
919.39	0.112
919.82	0.114
920.25	0.116
920.67	0.117
921.10	0.115
921.53	0.119
921.96	0.120
922.38	0.117
922.81	0.114
923.24	0.115
923.66	0.114
924.09	0.121
924.52	0.115
924.94	0.115
925.37	0.122
925.80	0.121
926.22	0.120
926.65	0.123
927.08	0.122
927.50	0.120
927.93	0.125
928.36	0.128
928.78	0.122
929.21	0.125
929.64	0.125
930.06	0.125
930.49	0.129
930.92	0.132
931.34	0.132
931.77	0.131
932.20	0.131
932.62	0.136
933.05	0.136
933.47	0.134
933.90	0.133
934.33	0.139
934.75	0.139
935.18	0.142
935.61	0.138
936.03	0.140
936.46	0.139
936.88	0.146
937.31	0.148
937.73	0.145
938.16	0.147
938.59	0.152
939.01	0.148
939.44	0.159
939.86	0.155
940.29	0.157
940.71	0.163
941.14	0.162
941.57	0.165
941.99	0.172
942.42	0.174
942.84	0.172
943.27	0.168
943.69	0.170
944.12	0.181
944.54	0.174
944.97	0.173
945.39	0.185
945.82	0.178
946.24	0.183
946.67	0.182
947.09	0.192
947.52	0.188
947.94	0.188
948.37	0.182
948.79	0.207
949.22	0.198
949.64	0.198
950.07	0.203
950.49	0.212
950.92	0.212
951.34	0.215
951.77	0.215
952.19	0.213
952.62	0.220
953.04	0.217
953.47	0.224
953.89	0.230
954.32	0.228
954.74	0.228
955.17	0.232
955.59	0.243
956.01	0.240
956.44	0.242
956.86	0.248
957.29	0.248
957.71	0.258
958.14	0.255
958.56	0.250
958.98	0.249
959.41	0.258
959.83	0.258
960.26	0.254
960.68	0.259
961.10	0.265
961.53	0.269
961.95	0.273
962.38	0.262
962.80	0.271
963.22	0.270
963.65	0.269
964.07	0.276
964.50	0.268
964.92	0.277
965.34	0.274
965.77	0.274
966.19	0.271
966.61	0.279
967.04	0.276
967.46	0.281
967.88	0.277
968.31	0.270
968.73	0.282
969.15	0.277
969.58	0.274
970.00	0.279
970.42	0.276
970.85	0.276
971.27	0.282
971.69	0.285
972.12	0.284
972.54	0.282
972.96	0.280
973.39	0.281
973.81	0.288
974.23	0.286
974.65	0.281
975.08	0.281
975.50	0.281
975.92	0.288
976.35	0.291
976.77	0.284
977.19	0.283
977.61	0.287
978.04	0.285
978.46	0.278
978.88	0.286
979.30	0.292
979.73	0.282
980.15	0.281
980.57	0.271
980.99	0.289
981.42	0.273
981.84	0.284
982.26	0.279
982.68	0.283
983.11	0.282
983.53	0.273
983.95	0.282
984.37	0.282
984.79	0.275
985.22	0.285
985.64	0.276
986.06	0.278
986.48	0.276
986.90	0.276
987.33	0.277
987.75	0.278
988.17	0.267
988.59	0.278
989.01	0.276
989.43	0.273
989.86	0.272
990.28	0.270
990.70	0.274
991.12	0.274
991.54	0.268
991.96	0.262
992.39	0.268
992.81	0.264
993.23	0.273
993.65	0.256
994.07	0.266
994.49	0.258
994.91	0.260
995.34	0.265
995.76	0.263
996.18	0.261
996.60	0.262
997.02	0.256
997.44	0.255
997.86	0.249
998.28	0.256
998.70	0.253
999.12	0.262
999.55	0.256
999.97	0.258
1000.39	0.259
1000.81	0.257
1001.23	0.259
1001.65	0.251
1002.07	0.246
1002.49	0.254
1002.91	0.249
1003.33	0.249
1003.75	0.250
1004.17	0.249
1004.59	0.246
1005.01	0.240
1005.43	0.242
1005.85	0.231
1006.28	0.251
1006.70	0.240
1007.12	0.239
1007.54	0.241
1007.96	0.243
1008.38	0.233
1008.80	0.241
1009.22	0.236
1009.64	0.239
1010.06	0.235
1010.48	0.235
1010.90	0.236
1011.32	0.227
1011.74	0.229
1012.16	0.241
1012.58	0.224
1013.00	0.224
1013.42	0.239
1013.84	0.226
1014.26	0.228
1014.67	0.230
1015.09	0.231
1015.51	0.227
1015.93	0.218
1016.35	0.219
1016.77	0.224
1017.19	0.216
1017.61	0.225
1018.03	0.226
1018.45	0.213
1018.87	0.219
1019.29	0.223
1019.71	0.215
1020.13	0.215
1020.55	0.204
1020.97	0.217
1021.38	0.215
1021.80	0.212
1022.22	0.212
1022.64	0.196
1023.06	0.202
1023.48	0.196
1023.90	0.211
1024.32	0.200
1024.74	0.201
1025.15	0.214
1025.57	0.201
1025.99	0.183
1026.41	0.192
1026.83	0.195
1027.25	0.197
1027.67	0.187
1028.08	0.202
1028.50	0.186
1028.92	0.185
1029.34	0.195
1029.76	0.184
1030.18	0.193
1030.60	0.193
1031.01	0.181
1031.43	0.179
1031.85	0.189
1032.27	0.173
1032.69	0.171
1033.10	0.177
1033.52	0.200
1033.94	0.191
1034.36	0.178
1034.78	0.194
1035.19	0.181
1035.61	0.169
1036.03	0.173
1036.45	0.175
1036.87	0.139
1037.28	0.170
1037.70	0.184
1038.12	0.186
1038.54	0.161
1038.95	0.163
1039.37	0.168
1039.79	0.166
1040.21	0.162
1040.62	0.168
1041.04	0.157
1041.46	0.161
1041.88	0.159
1042.29	0.152
1042.71	0.148
1043.13	0.155
1043.55	0.163
1043.96	0.173
1044.38	0.155
1044.80	0.148
1045.21	0.153
1045.63	0.154
1046.05	0.146
1046.47	0.172
1046.88	0.169
1047.30	0.166
1047.72	0.149
1048.13	0.152
1048.55	0.160
1048.97	0.152
1049.38	0.161
1049.80	0.168
1050.22	0.145
1050.63	0.166
1051.05	0.147
1051.47	0.155
1051.88	0.142
1052.30	0.136
1052.72	0.148
1053.13	0.142
1053.55	0.169
1053.97	0.146
1054.38	0.160
1054.80	0.176
1055.21	0.150
1055.63	0.136
1056.05	0.160
1056.46	0.189
1056.88	0.151
1057.29	0.168
1057.71	0.151
1058.13	0.166
1058.54	0.128
1058.96	0.149
1059.37	0.168
1059.79	0.165
1060.21	0.188
1060.62	0.213
1061.04	0.188
1061.45	0.250
1061.87	0.164
1062.28	0.146
1062.70	0.194
1063.12	0.162
1063.53	0.190
1063.95	0.136
1064.36	0.120
1064.78	0.143
1065.19	0.153
1065.61	0.179
1066.02	0.222
1066.44	0.184
1066.85	0.192
1067.27	0.165
1067.68	0.179
1068.10	0.193
1068.51	0.240
1068.93	0.185
1069.35	0.303
1069.76	0.156
1070.17	0.201
1070.59	0.143
1071.00	0.311
1071.42	0.126
1071.83	0.242
1072.25	0.281
1072.66	0.409
1073.08	0.241
1073.49	0.264
1073.91	0.190
1074.32	0.175
1074.74	0.170
1075.15	0.206
1075.57	0.329
1075.98	0.283
1076.40	0.287
1076.81	0.222
1077.22	0.183
1077.64	0.264
1078.05	0.261
1078.47	0.266
1078.88	0.581
1079.30	0.598
1079.71	0.339
1080.12	0.428
1080.54	0.685
1080.95	0.386
1081.37	0.604
1081.78	0.452
1082.19	0.938
1082.61	0.518
1083.02	0.382
1083.44	0.627
1083.85	0.719
1084.26	0.587
1084.68	0.548
1085.09	0.333
1085.50	-0.000
1085.92	-0.000
1086.33	0.340
1086.74	0.703
1087.16	0.755
1087.57	0.395
1087.98	-0.000
1088.40	0.723
1088.81	1.074
1089.22	-0.000
1089.64	0.960
1090.05	-0.000
1090.46	-0.000
1090.88	0.657
1091.29	1.693
1091.70	-0.000
1092.12	1.366
1092.53	-0.000
1092.94	0.635
1093.36	0.458
1093.77	0.477
1094.18	0.392
1094.59	-0.000
1095.01	-0.000
1095.42	0.677
1095.83	-0.000
1096.25	-0.000
1096.66	1.482
1097.07	0.433
1097.48	-0.008
1097.90	1.110
1098.31	0.340
1098.72	0.664
1099.13	-0.000
>>>>>End Processed Spectral Data<<<<<
