SpectraSuite Data File
++++++++++++++++++++++++++++++++++++
Date: Mon Jul 10 13:58:47 CEST 2017
User: IPCE
Dark Spectrum Present: Yes
Reference Spectrum Present: Yes
Number of Sampled Component Spectra: 1
Spectrometers: HR+C0708
Integration Time (usec): 1000 (HR+C0708)
Spectra Averaged: 10 (HR+C0708)
Boxcar Smoothing: 0 (HR+C0708)
Correct for Electrical Dark: No (HR+C0708)
Strobe/Lamp Enabled: No (HR+C0708)
Correct for Detector Non-linearity: No (HR+C0708)
Correct for Stray Light: No (HR+C0708)
Number of Pixels in Processed Spectrum: 2048
>>>>>Begin Processed Spectral Data<<<<<
188.76	0.078
189.23	-0.000
189.70	-0.000
190.17	0.338
190.64	0.097
191.12	-0.000
191.59	-0.000
192.06	1.170
192.53	-0.000
193.01	-0.000
193.48	-0.000
193.95	0.609
194.42	0.849
194.90	-0.000
195.37	0.742
195.84	1.301
196.31	-0.000
196.78	-0.000
197.26	0.366
197.73	-0.000
198.20	-0.000
198.67	-0.000
199.14	-0.000
199.62	-0.000
200.09	-0.000
200.56	0.743
201.03	0.522
201.50	0.801
201.97	0.617
202.45	0.691
202.92	1.114
203.39	1.062
203.86	0.624
204.33	0.539
204.80	0.690
205.28	-0.000
205.75	0.643
206.22	0.390
206.69	1.561
207.16	0.603
207.63	0.417
208.11	0.908
208.58	0.722
209.05	0.456
209.52	0.776
209.99	0.835
210.46	0.919
210.93	0.405
211.41	0.563
211.88	2.141
212.35	0.544
212.82	0.456
213.29	0.976
213.76	0.828
214.23	1.012
214.70	0.733
215.18	1.123
215.65	0.796
216.12	0.565
216.59	0.791
217.06	0.755
217.53	0.689
218.00	0.478
218.47	0.680
218.94	0.737
219.41	0.571
219.89	0.969
220.36	0.719
220.83	0.578
221.30	0.692
221.77	0.522
222.24	0.980
222.71	0.915
223.18	0.704
223.65	0.675
224.12	1.024
224.59	0.885
225.06	0.883
225.54	1.066
226.01	1.106
226.48	1.266
226.95	1.222
227.42	1.032
227.89	0.860
228.36	-0.000
228.83	1.676
229.30	1.217
229.77	1.126
230.24	2.083
230.71	1.695
231.18	1.829
231.65	2.383
232.12	1.708
232.59	1.798
233.06	1.655
233.53	1.555
234.00	1.898
234.47	1.724
234.94	1.907
235.41	1.979
235.88	1.979
236.35	1.738
236.82	2.188
237.29	2.673
237.76	2.444
238.23	2.245
238.70	3.001
239.17	2.790
239.64	2.281
240.11	2.078
240.58	2.381
241.05	2.281
241.52	2.048
241.99	2.431
242.46	-0.000
242.93	3.065
243.40	2.389
243.87	2.549
244.34	-0.000
244.81	2.339
245.28	2.626
245.75	2.557
246.22	2.733
246.69	2.490
247.16	2.611
247.63	3.030
248.10	2.712
248.57	2.541
249.04	2.510
249.51	3.130
249.98	2.406
250.45	2.791
250.92	-0.000
251.39	2.751
251.85	2.393
252.32	3.132
252.79	3.962
253.26	2.563
253.73	2.777
254.20	2.429
254.67	2.898
255.14	2.580
255.61	2.608
256.08	2.925
256.55	2.677
257.02	2.575
257.49	3.139
257.95	3.052
258.42	2.639
258.89	2.903
259.36	2.785
259.83	2.884
260.30	2.587
260.77	2.664
261.24	3.007
261.71	2.710
262.17	2.623
262.64	3.904
263.11	3.014
263.58	2.920
264.05	2.852
264.52	2.748
264.99	2.826
265.46	2.624
265.92	2.713
266.39	3.338
266.86	2.795
267.33	2.841
267.80	2.954
268.27	2.774
268.74	2.793
269.20	2.892
269.67	2.881
270.14	2.869
270.61	2.554
271.08	2.675
271.55	3.390
272.01	2.920
272.48	2.724
272.95	2.861
273.42	2.821
273.89	2.631
274.36	3.211
274.82	2.886
275.29	2.752
275.76	2.633
276.23	2.614
276.70	2.642
277.16	2.600
277.63	2.514
278.10	2.875
278.57	2.974
279.04	2.648
279.50	2.492
279.97	2.638
280.44	2.625
280.91	2.705
281.38	2.715
281.84	2.807
282.31	2.643
282.78	2.554
283.25	2.674
283.72	2.707
284.18	2.686
284.65	2.797
285.12	2.608
285.59	2.824
286.05	2.665
286.52	2.649
286.99	2.753
287.46	2.555
287.92	2.575
288.39	2.747
288.86	2.738
289.33	2.615
289.79	2.741
290.26	2.533
290.73	2.533
291.20	2.534
291.66	2.585
292.13	2.807
292.60	2.402
293.07	2.467
293.53	2.586
294.00	2.412
294.47	2.446
294.93	2.500
295.40	2.551
295.87	2.323
296.34	2.465
296.80	2.663
297.27	2.614
297.74	2.385
298.20	2.470
298.67	2.579
299.14	2.559
299.60	2.407
300.07	2.392
300.54	2.531
301.01	2.352
301.47	2.398
301.94	2.399
302.41	2.506
302.87	2.336
303.34	2.365
303.81	2.287
304.27	2.291
304.74	2.241
305.21	2.298
305.67	2.378
306.14	2.274
306.61	2.338
307.07	2.461
307.54	2.333
308.01	2.266
308.47	2.287
308.94	2.342
309.40	2.310
309.87	2.175
310.34	2.193
310.80	2.212
311.27	2.137
311.74	2.284
312.20	2.342
312.67	2.352
313.13	2.234
313.60	2.201
314.07	2.319
314.53	2.162
315.00	2.144
315.47	2.244
315.93	2.236
316.40	2.176
316.86	2.325
317.33	2.227
317.80	2.235
318.26	2.279
318.73	2.217
319.19	2.294
319.66	2.204
320.13	2.263
320.59	2.236
321.06	2.119
321.52	2.186
321.99	2.267
322.45	2.220
322.92	2.200
323.39	2.123
323.85	2.204
324.32	2.225
324.78	2.122
325.25	2.217
325.71	2.172
326.18	2.066
326.64	2.092
327.11	2.113
327.58	2.154
328.04	2.021
328.51	1.968
328.97	2.035
329.44	2.067
329.90	1.981
330.37	2.002
330.83	2.022
331.30	1.979
331.76	1.991
332.23	1.985
332.69	1.961
333.16	1.875
333.62	1.922
334.09	1.880
334.56	1.783
335.02	1.756
335.49	1.754
335.95	1.718
336.42	1.675
336.88	1.621
337.35	1.612
337.81	1.561
338.28	1.513
338.74	1.486
339.20	1.463
339.67	1.418
340.13	1.382
340.60	1.348
341.06	1.304
341.53	1.254
341.99	1.197
342.46	1.161
342.92	1.127
343.39	1.079
343.85	1.050
344.32	1.015
344.78	0.989
345.25	0.958
345.71	0.921
346.17	0.886
346.64	0.849
347.10	0.808
347.57	0.776
348.03	0.744
348.50	0.711
348.96	0.689
349.43	0.654
349.89	0.634
350.35	0.612
350.82	0.584
351.28	0.561
351.75	0.539
352.21	0.516
352.67	0.504
353.14	0.483
353.60	0.463
354.07	0.452
354.53	0.443
355.00	0.424
355.46	0.414
355.92	0.401
356.39	0.386
356.85	0.378
357.31	0.372
357.78	0.362
358.24	0.357
358.71	0.348
359.17	0.342
359.63	0.337
360.10	0.332
360.56	0.332
361.03	0.326
361.49	0.321
361.95	0.318
362.42	0.315
362.88	0.311
363.34	0.310
363.81	0.306
364.27	0.307
364.73	0.300
365.20	0.297
365.66	0.299
366.12	0.298
366.59	0.296
367.05	0.294
367.51	0.293
367.98	0.291
368.44	0.283
368.90	0.283
369.37	0.283
369.83	0.280
370.29	0.282
370.76	0.278
371.22	0.283
371.68	0.278
372.15	0.277
372.61	0.275
373.07	0.275
373.54	0.270
374.00	0.269
374.46	0.272
374.92	0.267
375.39	0.268
375.85	0.269
376.31	0.268
376.78	0.266
377.24	0.262
377.70	0.261
378.16	0.264
378.63	0.264
379.09	0.261
379.55	0.260
380.01	0.258
380.48	0.256
380.94	0.262
381.40	0.255
381.87	0.257
382.33	0.256
382.79	0.256
383.25	0.255
383.72	0.253
384.18	0.249
384.64	0.252
385.10	0.250
385.56	0.248
386.03	0.248
386.49	0.247
386.95	0.246
387.41	0.248
387.88	0.243
388.34	0.243
388.80	0.243
389.26	0.239
389.72	0.244
390.19	0.239
390.65	0.237
391.11	0.240
391.57	0.238
392.04	0.237
392.50	0.238
392.96	0.235
393.42	0.236
393.88	0.234
394.34	0.235
394.81	0.238
395.27	0.235
395.73	0.230
396.19	0.232
396.65	0.234
397.12	0.227
397.58	0.230
398.04	0.227
398.50	0.230
398.96	0.230
399.42	0.227
399.89	0.230
400.35	0.225
400.81	0.225
401.27	0.224
401.73	0.225
402.19	0.221
402.65	0.220
403.12	0.218
403.58	0.218
404.04	0.217
404.50	0.219
404.96	0.218
405.42	0.217
405.88	0.212
406.34	0.216
406.81	0.214
407.27	0.213
407.73	0.215
408.19	0.214
408.65	0.214
409.11	0.212
409.57	0.210
410.03	0.209
410.49	0.206
410.96	0.209
411.42	0.207
411.88	0.203
412.34	0.205
412.80	0.206
413.26	0.207
413.72	0.205
414.18	0.201
414.64	0.202
415.10	0.202
415.56	0.202
416.02	0.202
416.48	0.204
416.95	0.196
417.41	0.198
417.87	0.198
418.33	0.199
418.79	0.199
419.25	0.196
419.71	0.199
420.17	0.196
420.63	0.194
421.09	0.196
421.55	0.198
422.01	0.194
422.47	0.195
422.93	0.193
423.39	0.192
423.85	0.190
424.31	0.193
424.77	0.195
425.23	0.194
425.69	0.189
426.15	0.192
426.61	0.187
427.07	0.190
427.53	0.188
427.99	0.186
428.45	0.185
428.91	0.185
429.37	0.188
429.83	0.188
430.29	0.187
430.75	0.187
431.21	0.185
431.67	0.186
432.13	0.184
432.59	0.180
433.05	0.184
433.51	0.182
433.97	0.180
434.43	0.186
434.89	0.180
435.35	0.179
435.81	0.178
436.27	0.179
436.73	0.177
437.19	0.178
437.65	0.177
438.11	0.177
438.57	0.176
439.03	0.174
439.48	0.177
439.94	0.178
440.40	0.176
440.86	0.177
441.32	0.173
441.78	0.174
442.24	0.173
442.70	0.173
443.16	0.175
443.62	0.172
444.08	0.171
444.54	0.174
444.99	0.172
445.45	0.171
445.91	0.169
446.37	0.170
446.83	0.170
447.29	0.166
447.75	0.167
448.21	0.169
448.67	0.169
449.12	0.165
449.58	0.168
450.04	0.167
450.50	0.166
450.96	0.163
451.42	0.164
451.88	0.165
452.34	0.163
452.79	0.164
453.25	0.166
453.71	0.163
454.17	0.159
454.63	0.164
455.09	0.164
455.55	0.158
456.00	0.160
456.46	0.158
456.92	0.158
457.38	0.158
457.84	0.159
458.30	0.160
458.75	0.160
459.21	0.158
459.67	0.161
460.13	0.155
460.59	0.158
461.04	0.161
461.50	0.158
461.96	0.161
462.42	0.160
462.88	0.159
463.33	0.157
463.79	0.157
464.25	0.154
464.71	0.158
465.17	0.156
465.62	0.154
466.08	0.158
466.54	0.156
467.00	0.156
467.46	0.157
467.91	0.155
468.37	0.155
468.83	0.156
469.29	0.156
469.74	0.154
470.20	0.153
470.66	0.154
471.12	0.154
471.57	0.155
472.03	0.154
472.49	0.154
472.95	0.152
473.40	0.152
473.86	0.152
474.32	0.152
474.78	0.151
475.23	0.149
475.69	0.152
476.15	0.152
476.60	0.149
477.06	0.151
477.52	0.151
477.98	0.149
478.43	0.152
478.89	0.150
479.35	0.149
479.80	0.148
480.26	0.150
480.72	0.149
481.18	0.148
481.63	0.149
482.09	0.147
482.55	0.149
483.00	0.149
483.46	0.147
483.92	0.148
484.37	0.147
484.83	0.145
485.29	0.148
485.74	0.146
486.20	0.148
486.66	0.146
487.11	0.147
487.57	0.146
488.03	0.145
488.48	0.146
488.94	0.146
489.40	0.144
489.85	0.148
490.31	0.144
490.77	0.143
491.22	0.144
491.68	0.145
492.13	0.143
492.59	0.144
493.05	0.143
493.50	0.142
493.96	0.144
494.42	0.143
494.87	0.143
495.33	0.143
495.78	0.144
496.24	0.144
496.70	0.141
497.15	0.142
497.61	0.140
498.06	0.142
498.52	0.140
498.98	0.142
499.43	0.141
499.89	0.140
500.34	0.139
500.80	0.140
501.25	0.140
501.71	0.138
502.17	0.139
502.62	0.138
503.08	0.139
503.53	0.138
503.99	0.139
504.44	0.139
504.90	0.140
505.36	0.138
505.81	0.136
506.27	0.136
506.72	0.137
507.18	0.136
507.63	0.136
508.09	0.136
508.54	0.135
509.00	0.134
509.45	0.136
509.91	0.135
510.36	0.135
510.82	0.136
511.27	0.137
511.73	0.136
512.19	0.133
512.64	0.135
513.10	0.132
513.55	0.132
514.01	0.133
514.46	0.133
514.92	0.133
515.37	0.131
515.83	0.134
516.28	0.132
516.73	0.130
517.19	0.130
517.64	0.132
518.10	0.134
518.55	0.130
519.01	0.131
519.46	0.130
519.92	0.131
520.37	0.131
520.83	0.132
521.28	0.132
521.74	0.130
522.19	0.128
522.65	0.130
523.10	0.128
523.55	0.132
524.01	0.130
524.46	0.131
524.92	0.128
525.37	0.129
525.83	0.129
526.28	0.129
526.73	0.128
527.19	0.128
527.64	0.129
528.10	0.127
528.55	0.126
529.01	0.131
529.46	0.131
529.91	0.128
530.37	0.127
530.82	0.125
531.28	0.127
531.73	0.130
532.18	0.128
532.64	0.126
533.09	0.127
533.54	0.128
534.00	0.128
534.45	0.127
534.91	0.128
535.36	0.127
535.81	0.128
536.27	0.126
536.72	0.128
537.17	0.127
537.63	0.129
538.08	0.130
538.54	0.127
538.99	0.128
539.44	0.128
539.90	0.128
540.35	0.129
540.80	0.130
541.26	0.128
541.71	0.127
542.16	0.126
542.62	0.131
543.07	0.130
543.52	0.129
543.98	0.130
544.43	0.128
544.88	0.132
545.34	0.130
545.79	0.129
546.24	0.130
546.69	0.128
547.15	0.132
547.60	0.132
548.05	0.132
548.51	0.131
548.96	0.131
549.41	0.131
549.86	0.131
550.32	0.135
550.77	0.132
551.22	0.132
551.68	0.134
552.13	0.134
552.58	0.135
553.03	0.135
553.49	0.133
553.94	0.135
554.39	0.135
554.84	0.134
555.30	0.136
555.75	0.136
556.20	0.137
556.65	0.137
557.11	0.137
557.56	0.138
558.01	0.137
558.46	0.138
558.92	0.142
559.37	0.140
559.82	0.138
560.27	0.139
560.72	0.140
561.18	0.140
561.63	0.142
562.08	0.143
562.53	0.142
562.99	0.145
563.44	0.142
563.89	0.143
564.34	0.144
564.79	0.144
565.25	0.146
565.70	0.147
566.15	0.147
566.60	0.143
567.05	0.148
567.50	0.147
567.96	0.149
568.41	0.148
568.86	0.151
569.31	0.150
569.76	0.148
570.21	0.149
570.67	0.151
571.12	0.151
571.57	0.152
572.02	0.154
572.47	0.151
572.92	0.155
573.37	0.155
573.83	0.153
574.28	0.153
574.73	0.154
575.18	0.157
575.63	0.157
576.08	0.160
576.53	0.159
576.98	0.161
577.44	0.161
577.89	0.161
578.34	0.164
578.79	0.163
579.24	0.163
579.69	0.164
580.14	0.167
580.59	0.166
581.04	0.167
581.49	0.170
581.95	0.169
582.40	0.170
582.85	0.173
583.30	0.172
583.75	0.175
584.20	0.178
584.65	0.176
585.10	0.177
585.55	0.181
586.00	0.182
586.45	0.182
586.90	0.183
587.35	0.185
587.80	0.185
588.25	0.187
588.71	0.187
589.16	0.191
589.61	0.193
590.06	0.194
590.51	0.195
590.96	0.193
591.41	0.198
591.86	0.200
592.31	0.201
592.76	0.202
593.21	0.201
593.66	0.207
594.11	0.208
594.56	0.207
595.01	0.211
595.46	0.211
595.91	0.214
596.36	0.216
596.81	0.217
597.26	0.221
597.71	0.221
598.16	0.222
598.61	0.225
599.06	0.226
599.51	0.227
599.96	0.229
600.41	0.231
600.86	0.234
601.31	0.235
601.76	0.236
602.21	0.238
602.65	0.241
603.10	0.242
603.55	0.244
604.00	0.245
604.45	0.245
604.90	0.248
605.35	0.249
605.80	0.251
606.25	0.254
606.70	0.254
607.15	0.253
607.60	0.256
608.05	0.260
608.50	0.259
608.95	0.260
609.39	0.261
609.84	0.264
610.29	0.263
610.74	0.266
611.19	0.267
611.64	0.266
612.09	0.266
612.54	0.268
612.99	0.271
613.44	0.270
613.88	0.272
614.33	0.271
614.78	0.272
615.23	0.274
615.68	0.272
616.13	0.276
616.58	0.276
617.03	0.274
617.47	0.280
617.92	0.273
618.37	0.276
618.82	0.277
619.27	0.277
619.72	0.278
620.17	0.276
620.61	0.278
621.06	0.279
621.51	0.279
621.96	0.281
622.41	0.281
622.86	0.281
623.30	0.283
623.75	0.283
624.20	0.283
624.65	0.285
625.10	0.283
625.54	0.281
625.99	0.285
626.44	0.287
626.89	0.285
627.34	0.289
627.78	0.286
628.23	0.290
628.68	0.293
629.13	0.292
629.58	0.290
630.02	0.294
630.47	0.297
630.92	0.297
631.37	0.297
631.81	0.300
632.26	0.299
632.71	0.301
633.16	0.304
633.61	0.305
634.05	0.307
634.50	0.308
634.95	0.311
635.40	0.313
635.84	0.315
636.29	0.317
636.74	0.319
637.18	0.321
637.63	0.322
638.08	0.323
638.53	0.329
638.97	0.330
639.42	0.334
639.87	0.334
640.32	0.337
640.76	0.340
641.21	0.342
641.66	0.343
642.10	0.347
642.55	0.348
643.00	0.355
643.44	0.356
643.89	0.359
644.34	0.360
644.79	0.365
645.23	0.367
645.68	0.370
646.13	0.375
646.57	0.378
647.02	0.380
647.47	0.382
647.91	0.385
648.36	0.390
648.81	0.393
649.25	0.395
649.70	0.397
650.15	0.400
650.59	0.402
651.04	0.404
651.48	0.407
651.93	0.411
652.38	0.412
652.82	0.416
653.27	0.418
653.72	0.424
654.16	0.427
654.61	0.432
655.06	0.429
655.50	0.432
655.95	0.432
656.39	0.436
656.84	0.440
657.29	0.440
657.73	0.442
658.18	0.447
658.62	0.447
659.07	0.450
659.52	0.455
659.96	0.453
660.41	0.456
660.85	0.458
661.30	0.456
661.74	0.461
662.19	0.459
662.64	0.462
663.08	0.462
663.53	0.463
663.97	0.464
664.42	0.464
664.86	0.463
665.31	0.466
665.75	0.463
666.20	0.465
666.65	0.464
667.09	0.463
667.54	0.459
667.98	0.458
668.43	0.457
668.87	0.458
669.32	0.453
669.76	0.449
670.21	0.445
670.65	0.446
671.10	0.443
671.54	0.439
671.99	0.432
672.43	0.428
672.88	0.418
673.32	0.417
673.77	0.411
674.21	0.405
674.66	0.399
675.10	0.392
675.55	0.387
675.99	0.380
676.44	0.374
676.88	0.366
677.33	0.358
677.77	0.349
678.22	0.345
678.66	0.338
679.11	0.329
679.55	0.321
679.99	0.313
680.44	0.305
680.88	0.298
681.33	0.291
681.77	0.284
682.22	0.275
682.66	0.269
683.11	0.260
683.55	0.254
683.99	0.245
684.44	0.243
684.88	0.230
685.33	0.226
685.77	0.218
686.21	0.212
686.66	0.206
687.10	0.197
687.55	0.195
687.99	0.188
688.44	0.183
688.88	0.177
689.32	0.170
689.77	0.169
690.21	0.167
690.65	0.157
691.10	0.151
691.54	0.152
691.99	0.145
692.43	0.141
692.87	0.140
693.32	0.134
693.76	0.132
694.20	0.131
694.65	0.125
695.09	0.123
695.53	0.122
695.98	0.118
696.42	0.115
696.86	0.110
697.31	0.109
697.75	0.109
698.19	0.106
698.64	0.106
699.08	0.102
699.52	0.100
699.97	0.098
700.41	0.098
700.85	0.094
701.30	0.096
701.74	0.092
702.18	0.090
702.63	0.089
703.07	0.089
703.51	0.090
703.96	0.085
704.40	0.086
704.84	0.086
705.28	0.084
705.73	0.084
706.17	0.082
706.61	0.081
707.06	0.081
707.50	0.081
707.94	0.077
708.38	0.077
708.83	0.078
709.27	0.076
709.71	0.076
710.15	0.077
710.60	0.074
711.04	0.076
711.48	0.073
711.92	0.073
712.37	0.074
712.81	0.071
713.25	0.073
713.69	0.076
714.13	0.073
714.58	0.072
715.02	0.072
715.46	0.070
715.90	0.071
716.35	0.071
716.79	0.071
717.23	0.071
717.67	0.070
718.11	0.072
718.56	0.070
719.00	0.069
719.44	0.069
719.88	0.071
720.32	0.068
720.76	0.070
721.21	0.070
721.65	0.068
722.09	0.072
722.53	0.068
722.97	0.069
723.41	0.068
723.86	0.070
724.30	0.071
724.74	0.069
725.18	0.068
725.62	0.068
726.06	0.066
726.50	0.070
726.95	0.069
727.39	0.068
727.83	0.072
728.27	0.068
728.71	0.068
729.15	0.072
729.59	0.069
730.03	0.069
730.48	0.071
730.92	0.070
731.36	0.068
731.80	0.069
732.24	0.067
732.68	0.069
733.12	0.071
733.56	0.070
734.00	0.070
734.44	0.070
734.89	0.069
735.33	0.071
735.77	0.070
736.21	0.072
736.65	0.070
737.09	0.071
737.53	0.068
737.97	0.072
738.41	0.070
738.85	0.074
739.29	0.071
739.73	0.071
740.17	0.074
740.61	0.071
741.05	0.069
741.49	0.070
741.93	0.070
742.37	0.070
742.81	0.070
743.26	0.070
743.70	0.070
744.14	0.066
744.58	0.070
745.02	0.069
745.46	0.069
745.90	0.071
746.34	0.072
746.78	0.070
747.22	0.069
747.66	0.070
748.10	0.068
748.54	0.072
748.98	0.066
749.42	0.072
749.86	0.068
750.29	0.066
750.73	0.067
751.17	0.070
751.61	0.070
752.05	0.069
752.49	0.070
752.93	0.064
753.37	0.070
753.81	0.070
754.25	0.067
754.69	0.068
755.13	0.066
755.57	0.068
756.01	0.066
756.45	0.068
756.89	0.063
757.33	0.073
757.77	0.065
758.21	0.066
758.64	0.069
759.08	0.065
759.52	0.065
759.96	0.066
760.40	0.062
760.84	0.068
761.28	0.065
761.72	0.066
762.16	0.068
762.60	0.069
763.03	0.065
763.47	0.066
763.91	0.065
764.35	0.063
764.79	0.063
765.23	0.067
765.67	0.065
766.11	0.064
766.54	0.069
766.98	0.068
767.42	0.067
767.86	0.067
768.30	0.069
768.74	0.063
769.17	0.064
769.61	0.065
770.05	0.066
770.49	0.068
770.93	0.065
771.37	0.063
771.80	0.067
772.24	0.064
772.68	0.066
773.12	0.068
773.56	0.067
774.00	0.064
774.43	0.063
774.87	0.062
775.31	0.065
775.75	0.064
776.19	0.065
776.62	0.066
777.06	0.064
777.50	0.065
777.94	0.063
778.37	0.067
778.81	0.066
779.25	0.066
779.69	0.066
780.13	0.071
780.56	0.065
781.00	0.066
781.44	0.065
781.88	0.065
782.31	0.065
782.75	0.064
783.19	0.065
783.63	0.064
784.06	0.064
784.50	0.063
784.94	0.067
785.37	0.061
785.81	0.067
786.25	0.066
786.69	0.065
787.12	0.067
787.56	0.063
788.00	0.062
788.43	0.062
788.87	0.063
789.31	0.062
789.75	0.066
790.18	0.063
790.62	0.064
791.06	0.064
791.49	0.063
791.93	0.063
792.37	0.064
792.80	0.061
793.24	0.059
793.68	0.064
794.11	0.066
794.55	0.065
794.99	0.061
795.42	0.062
795.86	0.061
796.30	0.060
796.73	0.059
797.17	0.067
797.61	0.064
798.04	0.058
798.48	0.061
798.91	0.060
799.35	0.061
799.79	0.061
800.22	0.063
800.66	0.063
801.10	0.062
801.53	0.063
801.97	0.064
802.40	0.062
802.84	0.062
803.28	0.065
803.71	0.063
804.15	0.066
804.58	0.060
805.02	0.060
805.46	0.062
805.89	0.062
806.33	0.063
806.76	0.064
807.20	0.064
807.63	0.064
808.07	0.065
808.51	0.060
808.94	0.064
809.38	0.063
809.81	0.060
810.25	0.064
810.68	0.062
811.12	0.062
811.55	0.061
811.99	0.063
812.42	0.057
812.86	0.063
813.29	0.062
813.73	0.062
814.17	0.063
814.60	0.059
815.04	0.063
815.47	0.059
815.91	0.063
816.34	0.058
816.78	0.058
817.21	0.056
817.65	0.062
818.08	0.061
818.52	0.056
818.95	0.062
819.39	0.061
819.82	0.058
820.25	0.059
820.69	0.056
821.12	0.058
821.56	0.055
821.99	0.061
822.43	0.061
822.86	0.059
823.30	0.061
823.73	0.059
824.17	0.060
824.60	0.058
825.04	0.058
825.47	0.061
825.90	0.062
826.34	0.058
826.77	0.062
827.21	0.064
827.64	0.060
828.08	0.062
828.51	0.064
828.94	0.061
829.38	0.063
829.81	0.061
830.25	0.065
830.68	0.069
831.11	0.064
831.55	0.062
831.98	0.068
832.42	0.061
832.85	0.068
833.28	0.067
833.72	0.065
834.15	0.067
834.58	0.065
835.02	0.066
835.45	0.063
835.88	0.067
836.32	0.061
836.75	0.066
837.19	0.062
837.62	0.063
838.05	0.068
838.49	0.067
838.92	0.076
839.35	0.063
839.79	0.067
840.22	0.071
840.65	0.068
841.09	0.068
841.52	0.075
841.95	0.067
842.39	0.069
842.82	0.069
843.25	0.069
843.68	0.071
844.12	0.069
844.55	0.067
844.98	0.072
845.42	0.067
845.85	0.070
846.28	0.068
846.71	0.065
847.15	0.064
847.58	0.075
848.01	0.071
848.45	0.066
848.88	0.069
849.31	0.072
849.74	0.072
850.18	0.066
850.61	0.066
851.04	0.077
851.47	0.068
851.91	0.075
852.34	0.067
852.77	0.064
853.20	0.069
853.64	0.070
854.07	0.070
854.50	0.073
854.93	0.067
855.36	0.069
855.80	0.073
856.23	0.073
856.66	0.067
857.09	0.067
857.52	0.063
857.96	0.060
858.39	0.072
858.82	0.070
859.25	0.072
859.68	0.068
860.12	0.069
860.55	0.075
860.98	0.078
861.41	0.072
861.84	0.070
862.27	0.065
862.71	0.066
863.14	0.074
863.57	0.072
864.00	0.070
864.43	0.073
864.86	0.070
865.30	0.076
865.73	0.075
866.16	0.069
866.59	0.073
867.02	0.071
867.45	0.070
867.88	0.074
868.31	0.071
868.75	0.075
869.18	0.072
869.61	0.074
870.04	0.075
870.47	0.069
870.90	0.064
871.33	0.079
871.76	0.072
872.19	0.065
872.62	0.084
873.06	0.076
873.49	0.067
873.92	0.074
874.35	0.074
874.78	0.080
875.21	0.071
875.64	0.072
876.07	0.075
876.50	0.070
876.93	0.075
877.36	0.076
877.79	0.072
878.22	0.074
878.65	0.075
879.08	0.072
879.51	0.079
879.94	0.071
880.37	0.077
880.80	0.079
881.23	0.078
881.67	0.069
882.10	0.084
882.53	0.077
882.96	0.076
883.39	0.078
883.82	0.081
884.25	0.080
884.68	0.080
885.11	0.074
885.54	0.078
885.97	0.075
886.39	0.072
886.82	0.081
887.25	0.072
887.68	0.076
888.11	0.083
888.54	0.078
888.97	0.084
889.40	0.075
889.83	0.075
890.26	0.083
890.69	0.075
891.12	0.079
891.55	0.084
891.98	0.075
892.41	0.079
892.84	0.078
893.27	0.077
893.70	0.078
894.13	0.076
894.56	0.079
894.98	0.084
895.41	0.077
895.84	0.078
896.27	0.084
896.70	0.081
897.13	0.085
897.56	0.088
897.99	0.086
898.42	0.079
898.85	0.080
899.27	0.080
899.70	0.082
900.13	0.078
900.56	0.080
900.99	0.081
901.42	0.078
901.85	0.080
902.28	0.087
902.70	0.082
903.13	0.081
903.56	0.076
903.99	0.082
904.42	0.084
904.85	0.084
905.27	0.081
905.70	0.085
906.13	0.083
906.56	0.083
906.99	0.085
907.42	0.082
907.84	0.085
908.27	0.082
908.70	0.087
909.13	0.081
909.56	0.083
909.98	0.082
910.41	0.081
910.84	0.082
911.27	0.082
911.70	0.081
912.12	0.085
912.55	0.082
912.98	0.081
913.41	0.080
913.84	0.084
914.26	0.079
914.69	0.085
915.12	0.083
915.55	0.081
915.97	0.082
916.40	0.085
916.83	0.083
917.26	0.085
917.68	0.084
918.11	0.079
918.54	0.081
918.97	0.086
919.39	0.084
919.82	0.088
920.25	0.085
920.67	0.090
921.10	0.087
921.53	0.086
921.96	0.088
922.38	0.093
922.81	0.088
923.24	0.087
923.66	0.084
924.09	0.089
924.52	0.087
924.94	0.086
925.37	0.090
925.80	0.093
926.22	0.091
926.65	0.091
927.08	0.096
927.50	0.089
927.93	0.092
928.36	0.098
928.78	0.096
929.21	0.097
929.64	0.094
930.06	0.094
930.49	0.099
930.92	0.101
931.34	0.102
931.77	0.103
932.20	0.105
932.62	0.109
933.05	0.107
933.47	0.113
933.90	0.107
934.33	0.107
934.75	0.111
935.18	0.115
935.61	0.111
936.03	0.108
936.46	0.117
936.88	0.115
937.31	0.117
937.73	0.113
938.16	0.113
938.59	0.128
939.01	0.120
939.44	0.123
939.86	0.136
940.29	0.127
940.71	0.134
941.14	0.139
941.57	0.130
941.99	0.146
942.42	0.139
942.84	0.138
943.27	0.147
943.69	0.140
944.12	0.147
944.54	0.151
944.97	0.141
945.39	0.155
945.82	0.154
946.24	0.154
946.67	0.151
947.09	0.159
947.52	0.159
947.94	0.159
948.37	0.158
948.79	0.178
949.22	0.176
949.64	0.171
950.07	0.168
950.49	0.192
950.92	0.183
951.34	0.184
951.77	0.190
952.19	0.191
952.62	0.193
953.04	0.191
953.47	0.194
953.89	0.208
954.32	0.205
954.74	0.195
955.17	0.208
955.59	0.209
956.01	0.209
956.44	0.216
956.86	0.219
957.29	0.220
957.71	0.227
958.14	0.234
958.56	0.225
958.98	0.223
959.41	0.226
959.83	0.231
960.26	0.227
960.68	0.234
961.10	0.237
961.53	0.241
961.95	0.245
962.38	0.245
962.80	0.241
963.22	0.250
963.65	0.242
964.07	0.244
964.50	0.249
964.92	0.252
965.34	0.241
965.77	0.247
966.19	0.250
966.61	0.249
967.04	0.253
967.46	0.258
967.88	0.250
968.31	0.248
968.73	0.256
969.15	0.260
969.58	0.248
970.00	0.246
970.42	0.257
970.85	0.252
971.27	0.251
971.69	0.256
972.12	0.255
972.54	0.252
972.96	0.248
973.39	0.255
973.81	0.268
974.23	0.257
974.65	0.255
975.08	0.263
975.50	0.251
975.92	0.258
976.35	0.266
976.77	0.252
977.19	0.256
977.61	0.250
978.04	0.261
978.46	0.261
978.88	0.255
979.30	0.257
979.73	0.261
980.15	0.261
980.57	0.251
980.99	0.266
981.42	0.250
981.84	0.254
982.26	0.259
982.68	0.260
983.11	0.257
983.53	0.251
983.95	0.260
984.37	0.257
984.79	0.249
985.22	0.258
985.64	0.261
986.06	0.249
986.48	0.251
986.90	0.248
987.33	0.250
987.75	0.248
988.17	0.242
988.59	0.247
989.01	0.245
989.43	0.249
989.86	0.247
990.28	0.249
990.70	0.248
991.12	0.251
991.54	0.244
991.96	0.244
992.39	0.245
992.81	0.244
993.23	0.243
993.65	0.240
994.07	0.239
994.49	0.235
994.91	0.244
995.34	0.238
995.76	0.229
996.18	0.242
996.60	0.232
997.02	0.240
997.44	0.228
997.86	0.228
998.28	0.243
998.70	0.230
999.12	0.233
999.55	0.242
999.97	0.232
1000.39	0.227
1000.81	0.234
1001.23	0.220
1001.65	0.229
1002.07	0.225
1002.49	0.229
1002.91	0.223
1003.33	0.220
1003.75	0.229
1004.17	0.222
1004.59	0.225
1005.01	0.215
1005.43	0.228
1005.85	0.218
1006.28	0.224
1006.70	0.232
1007.12	0.216
1007.54	0.215
1007.96	0.214
1008.38	0.205
1008.80	0.224
1009.22	0.214
1009.64	0.209
1010.06	0.212
1010.48	0.209
1010.90	0.206
1011.32	0.209
1011.74	0.214
1012.16	0.209
1012.58	0.202
1013.00	0.196
1013.42	0.210
1013.84	0.203
1014.26	0.198
1014.67	0.201
1015.09	0.205
1015.51	0.197
1015.93	0.197
1016.35	0.194
1016.77	0.202
1017.19	0.186
1017.61	0.183
1018.03	0.203
1018.45	0.189
1018.87	0.188
1019.29	0.200
1019.71	0.186
1020.13	0.189
1020.55	0.186
1020.97	0.195
1021.38	0.188
1021.80	0.190
1022.22	0.182
1022.64	0.186
1023.06	0.171
1023.48	0.180
1023.90	0.192
1024.32	0.189
1024.74	0.171
1025.15	0.186
1025.57	0.173
1025.99	0.172
1026.41	0.177
1026.83	0.169
1027.25	0.177
1027.67	0.169
1028.08	0.162
1028.50	0.171
1028.92	0.165
1029.34	0.166
1029.76	0.170
1030.18	0.175
1030.60	0.156
1031.01	0.159
1031.43	0.158
1031.85	0.154
1032.27	0.159
1032.69	0.156
1033.10	0.167
1033.52	0.170
1033.94	0.140
1034.36	0.146
1034.78	0.157
1035.19	0.157
1035.61	0.136
1036.03	0.155
1036.45	0.155
1036.87	0.133
1037.28	0.130
1037.70	0.172
1038.12	0.153
1038.54	0.130
1038.95	0.150
1039.37	0.145
1039.79	0.132
1040.21	0.141
1040.62	0.131
1041.04	0.129
1041.46	0.136
1041.88	0.125
1042.29	0.152
1042.71	0.120
1043.13	0.129
1043.55	0.171
1043.96	0.139
1044.38	0.127
1044.80	0.132
1045.21	0.121
1045.63	0.141
1046.05	0.123
1046.47	0.129
1046.88	0.143
1047.30	0.131
1047.72	0.120
1048.13	0.158
1048.55	0.148
1048.97	0.108
1049.38	0.117
1049.80	0.126
1050.22	0.130
1050.63	0.127
1051.05	0.093
1051.47	0.150
1051.88	0.116
1052.30	0.123
1052.72	0.150
1053.13	0.127
1053.55	0.108
1053.97	0.128
1054.38	0.151
1054.80	0.129
1055.21	0.139
1055.63	0.123
1056.05	0.164
1056.46	0.149
1056.88	0.127
1057.29	0.131
1057.71	0.122
1058.13	0.138
1058.54	0.148
1058.96	0.135
1059.37	0.112
1059.79	0.149
1060.21	0.118
1060.62	0.213
1061.04	0.143
1061.45	0.142
1061.87	0.180
1062.28	0.115
1062.70	0.106
1063.12	0.147
1063.53	0.188
1063.95	0.134
1064.36	0.154
1064.78	0.100
1065.19	0.143
1065.61	0.177
1066.02	0.132
1066.44	0.229
1066.85	0.211
1067.27	0.153
1067.68	0.177
1068.10	0.168
1068.51	0.170
1068.93	0.105
1069.35	0.156
1069.76	0.278
1070.17	0.150
1070.59	0.159
1071.00	0.350
1071.42	0.119
1071.83	0.175
1072.25	0.289
1072.66	0.248
1073.08	0.328
1073.49	0.245
1073.91	0.205
1074.32	0.195
1074.74	0.134
1075.15	0.233
1075.57	0.394
1075.98	0.189
1076.40	0.296
1076.81	0.336
1077.22	0.207
1077.64	0.192
1078.05	0.233
1078.47	0.238
1078.88	0.345
1079.30	0.836
1079.71	0.175
1080.12	0.466
1080.54	0.235
1080.95	0.585
1081.37	0.776
1081.78	0.479
1082.19	0.454
1082.61	0.707
1083.02	0.542
1083.44	0.451
1083.85	0.497
1084.26	0.094
1084.68	-0.000
1085.09	0.853
1085.50	0.364
1085.92	-0.000
1086.33	0.624
1086.74	0.308
1087.16	0.502
1087.57	1.914
1087.98	-0.000
1088.40	0.590
1088.81	0.489
1089.22	0.681
1089.64	-0.000
1090.05	0.494
1090.46	-0.000
1090.88	0.803
1091.29	0.568
1091.70	-0.000
1092.12	-0.000
1092.53	1.130
1092.94	0.890
1093.36	0.398
1093.77	-0.000
1094.18	0.246
1094.59	0.794
1095.01	-0.000
1095.42	0.388
1095.83	0.929
1096.25	-0.000
1096.66	0.251
1097.07	0.392
1097.48	0.515
1097.90	2.013
1098.31	-0.000
1098.72	0.347
1099.13	0.052
>>>>>End Processed Spectral Data<<<<<
