SpectraSuite Data File
++++++++++++++++++++++++++++++++++++
Date: Tue Mar 29 15:58:11 CEST 2016
User: IPCE
Dark Spectrum Present: Yes
Reference Spectrum Present: Yes
Number of Sampled Component Spectra: 1
Spectrometers: HR+C0708
Integration Time (usec): 1000 (HR+C0708)
Spectra Averaged: 10 (HR+C0708)
Boxcar Smoothing: 0 (HR+C0708)
Correct for Electrical Dark: No (HR+C0708)
Strobe/Lamp Enabled: No (HR+C0708)
Correct for Detector Non-linearity: No (HR+C0708)
Correct for Stray Light: No (HR+C0708)
Number of Pixels in Processed Spectrum: 2048
>>>>>Begin Processed Spectral Data<<<<<
188.76	0.111
189.23	0.398
189.70	0.051
190.17	-0.037
190.64	-0.198
191.12	0.052
191.59	-0.053
192.06	0.371
192.53	0.002
193.01	0.074
193.48	0.015
193.95	-0.352
194.42	0.012
194.90	0.228
195.37	-0.186
195.84	0.087
196.31	0.308
196.78	-0.137
197.26	0.171
197.73	-0.203
198.20	-0.127
198.67	-0.162
199.14	-0.304
199.62	0.133
200.09	0.105
200.56	0.109
201.03	0.168
201.50	0.252
201.97	0.224
202.45	0.083
202.92	0.142
203.39	0.164
203.86	0.155
204.33	0.122
204.80	0.190
205.28	0.250
205.75	0.148
206.22	0.077
206.69	0.260
207.16	0.198
207.63	0.093
208.11	0.120
208.58	0.144
209.05	0.224
209.52	0.056
209.99	0.104
210.46	0.212
210.93	0.153
211.41	0.132
211.88	0.259
212.35	0.157
212.82	0.227
213.29	0.127
213.76	0.190
214.23	0.270
214.70	0.135
215.18	0.305
215.65	0.294
216.12	0.261
216.59	0.269
217.06	0.340
217.53	0.326
218.00	0.298
218.47	0.303
218.94	0.431
219.41	0.381
219.89	0.389
220.36	0.429
220.83	0.447
221.30	0.492
221.77	0.535
222.24	0.629
222.71	0.594
223.18	0.562
223.65	0.665
224.12	0.750
224.59	0.728
225.06	0.797
225.54	0.855
226.01	0.769
226.48	0.883
226.95	0.872
227.42	1.019
227.89	1.024
228.36	1.055
228.83	1.114
229.30	1.221
229.77	1.216
230.24	1.227
230.71	1.312
231.18	1.354
231.65	1.424
232.12	1.404
232.59	1.421
233.06	1.502
233.53	1.488
234.00	1.533
234.47	1.622
234.94	1.580
235.41	1.607
235.88	1.714
236.35	1.669
236.82	1.696
237.29	1.740
237.76	1.748
238.23	1.823
238.70	1.830
239.17	1.830
239.64	1.852
240.11	1.902
240.58	1.868
241.05	1.986
241.52	2.024
241.99	1.989
242.46	1.946
242.93	2.033
243.40	2.070
243.87	1.994
244.34	2.053
244.81	2.129
245.28	2.077
245.75	2.024
246.22	2.194
246.69	2.131
247.16	2.043
247.63	2.041
248.10	2.154
248.57	2.192
249.04	2.062
249.51	2.064
249.98	2.134
250.45	2.052
250.92	2.037
251.39	2.018
251.85	1.956
252.32	2.010
252.79	1.913
253.26	1.894
253.73	1.822
254.20	1.728
254.67	1.640
255.14	1.611
255.61	1.519
256.08	1.428
256.55	1.384
257.02	1.325
257.49	1.257
257.95	1.211
258.42	1.165
258.89	1.106
259.36	1.063
259.83	1.037
260.30	1.000
260.77	0.962
261.24	0.933
261.71	0.894
262.17	0.870
262.64	0.840
263.11	0.814
263.58	0.788
264.05	0.765
264.52	0.739
264.99	0.717
265.46	0.696
265.92	0.674
266.39	0.653
266.86	0.632
267.33	0.611
267.80	0.595
268.27	0.579
268.74	0.560
269.20	0.544
269.67	0.523
270.14	0.509
270.61	0.494
271.08	0.479
271.55	0.465
272.01	0.450
272.48	0.438
272.95	0.424
273.42	0.414
273.89	0.401
274.36	0.389
274.82	0.380
275.29	0.369
275.76	0.359
276.23	0.347
276.70	0.339
277.16	0.329
277.63	0.324
278.10	0.313
278.57	0.306
279.04	0.294
279.50	0.289
279.97	0.281
280.44	0.273
280.91	0.269
281.38	0.262
281.84	0.254
282.31	0.249
282.78	0.244
283.25	0.237
283.72	0.235
284.18	0.229
284.65	0.224
285.12	0.219
285.59	0.211
286.05	0.211
286.52	0.204
286.99	0.199
287.46	0.195
287.92	0.192
288.39	0.186
288.86	0.182
289.33	0.179
289.79	0.174
290.26	0.168
290.73	0.165
291.20	0.161
291.66	0.156
292.13	0.154
292.60	0.151
293.07	0.145
293.53	0.143
294.00	0.139
294.47	0.133
294.93	0.130
295.40	0.127
295.87	0.122
296.34	0.120
296.80	0.114
297.27	0.113
297.74	0.110
298.20	0.104
298.67	0.102
299.14	0.099
299.60	0.094
300.07	0.093
300.54	0.089
301.01	0.086
301.47	0.086
301.94	0.081
302.41	0.076
302.87	0.074
303.34	0.072
303.81	0.071
304.27	0.066
304.74	0.064
305.21	0.061
305.67	0.059
306.14	0.054
306.61	0.053
307.07	0.053
307.54	0.048
308.01	0.048
308.47	0.046
308.94	0.044
309.40	0.043
309.87	0.041
310.34	0.040
310.80	0.035
311.27	0.033
311.74	0.034
312.20	0.034
312.67	0.031
313.13	0.030
313.60	0.030
314.07	0.026
314.53	0.028
315.00	0.028
315.47	0.025
315.93	0.025
316.40	0.022
316.86	0.023
317.33	0.020
317.80	0.020
318.26	0.020
318.73	0.020
319.19	0.020
319.66	0.018
320.13	0.016
320.59	0.017
321.06	0.016
321.52	0.014
321.99	0.014
322.45	0.014
322.92	0.015
323.39	0.013
323.85	0.013
324.32	0.014
324.78	0.013
325.25	0.012
325.71	0.014
326.18	0.012
326.64	0.011
327.11	0.011
327.58	0.012
328.04	0.008
328.51	0.008
328.97	0.008
329.44	0.007
329.90	0.008
330.37	0.008
330.83	0.008
331.30	0.009
331.76	0.005
332.23	0.005
332.69	0.005
333.16	0.002
333.62	0.002
334.09	0.004
334.56	0.004
335.02	0.005
335.49	0.005
335.95	0.005
336.42	0.003
336.88	0.003
337.35	0.003
337.81	0.002
338.28	-0.001
338.74	-0.001
339.20	-0.002
339.67	-0.005
340.13	0.001
340.60	0.001
341.06	0.001
341.53	-0.001
341.99	0.002
342.46	-0.001
342.92	0.001
343.39	0.001
343.85	0.002
344.32	-0.000
344.78	-0.004
345.25	-0.006
345.71	-0.008
346.17	-0.006
346.64	-0.006
347.10	-0.004
347.57	-0.002
348.03	-0.002
348.50	-0.004
348.96	-0.005
349.43	-0.003
349.89	-0.007
350.35	-0.005
350.82	-0.005
351.28	-0.005
351.75	-0.004
352.21	-0.007
352.67	-0.007
353.14	-0.006
353.60	-0.003
354.07	-0.006
354.53	-0.000
355.00	-0.004
355.46	-0.001
355.92	-0.004
356.39	-0.005
356.85	-0.004
357.31	-0.002
357.78	-0.003
358.24	-0.004
358.71	-0.005
359.17	-0.003
359.63	-0.006
360.10	-0.006
360.56	-0.004
361.03	-0.004
361.49	-0.007
361.95	-0.006
362.42	-0.007
362.88	-0.005
363.34	-0.005
363.81	-0.005
364.27	-0.006
364.73	-0.009
365.20	-0.005
365.66	-0.008
366.12	-0.007
366.59	-0.005
367.05	-0.005
367.51	-0.008
367.98	-0.009
368.44	-0.007
368.90	-0.008
369.37	-0.008
369.83	-0.010
370.29	-0.008
370.76	-0.011
371.22	-0.008
371.68	-0.007
372.15	-0.009
372.61	-0.009
373.07	-0.009
373.54	-0.008
374.00	-0.010
374.46	-0.005
374.92	-0.006
375.39	-0.010
375.85	-0.008
376.31	-0.008
376.78	-0.008
377.24	-0.005
377.70	-0.008
378.16	-0.009
378.63	-0.008
379.09	-0.008
379.55	-0.007
380.01	-0.011
380.48	-0.009
380.94	-0.010
381.40	-0.010
381.87	-0.010
382.33	-0.008
382.79	-0.009
383.25	-0.010
383.72	-0.008
384.18	-0.008
384.64	-0.010
385.10	-0.010
385.56	-0.009
386.03	-0.008
386.49	-0.011
386.95	-0.011
387.41	-0.008
387.88	-0.008
388.34	-0.008
388.80	-0.011
389.26	-0.009
389.72	-0.007
390.19	-0.008
390.65	-0.009
391.11	-0.007
391.57	-0.008
392.04	-0.008
392.50	-0.010
392.96	-0.009
393.42	-0.007
393.88	-0.008
394.34	-0.010
394.81	-0.012
395.27	-0.012
395.73	-0.008
396.19	-0.008
396.65	-0.007
397.12	-0.010
397.58	-0.008
398.04	-0.008
398.50	-0.009
398.96	-0.010
399.42	-0.011
399.89	-0.007
400.35	-0.009
400.81	-0.011
401.27	-0.009
401.73	-0.009
402.19	-0.008
402.65	-0.009
403.12	-0.010
403.58	-0.009
404.04	-0.006
404.50	-0.009
404.96	-0.007
405.42	-0.008
405.88	-0.008
406.34	-0.009
406.81	-0.011
407.27	-0.009
407.73	-0.010
408.19	-0.010
408.65	-0.008
409.11	-0.011
409.57	-0.010
410.03	-0.007
410.49	-0.012
410.96	-0.009
411.42	-0.009
411.88	-0.008
412.34	-0.011
412.80	-0.007
413.26	-0.010
413.72	-0.008
414.18	-0.007
414.64	-0.008
415.10	-0.012
415.56	-0.009
416.02	-0.011
416.48	-0.009
416.95	-0.009
417.41	-0.010
417.87	-0.009
418.33	-0.010
418.79	-0.007
419.25	-0.010
419.71	-0.009
420.17	-0.008
420.63	-0.008
421.09	-0.012
421.55	-0.007
422.01	-0.010
422.47	-0.009
422.93	-0.010
423.39	-0.008
423.85	-0.013
424.31	-0.007
424.77	-0.012
425.23	-0.011
425.69	-0.011
426.15	-0.008
426.61	-0.008
427.07	-0.010
427.53	-0.009
427.99	-0.009
428.45	-0.010
428.91	-0.009
429.37	-0.009
429.83	-0.007
430.29	-0.012
430.75	-0.013
431.21	-0.008
431.67	-0.009
432.13	-0.012
432.59	-0.011
433.05	-0.007
433.51	-0.009
433.97	-0.009
434.43	-0.012
434.89	-0.011
435.35	-0.009
435.81	-0.011
436.27	-0.009
436.73	-0.010
437.19	-0.012
437.65	-0.009
438.11	-0.005
438.57	-0.008
439.03	-0.007
439.48	-0.009
439.94	-0.008
440.40	-0.007
440.86	-0.006
441.32	-0.007
441.78	-0.006
442.24	-0.009
442.70	-0.007
443.16	-0.009
443.62	-0.008
444.08	-0.009
444.54	-0.009
444.99	-0.004
445.45	-0.009
445.91	-0.008
446.37	-0.004
446.83	-0.009
447.29	-0.008
447.75	-0.005
448.21	-0.007
448.67	-0.007
449.12	-0.007
449.58	-0.006
450.04	-0.006
450.50	-0.006
450.96	-0.005
451.42	-0.008
451.88	-0.008
452.34	-0.010
452.79	-0.006
453.25	-0.005
453.71	-0.007
454.17	-0.007
454.63	-0.009
455.09	-0.009
455.55	-0.006
456.00	-0.006
456.46	-0.008
456.92	-0.009
457.38	-0.006
457.84	-0.006
458.30	-0.005
458.75	-0.004
459.21	-0.007
459.67	-0.005
460.13	-0.006
460.59	-0.007
461.04	-0.005
461.50	-0.006
461.96	-0.004
462.42	-0.006
462.88	-0.004
463.33	-0.004
463.79	-0.007
464.25	-0.009
464.71	-0.006
465.17	-0.004
465.62	-0.006
466.08	-0.006
466.54	-0.006
467.00	-0.005
467.46	-0.008
467.91	-0.006
468.37	-0.007
468.83	-0.006
469.29	-0.010
469.74	-0.005
470.20	-0.006
470.66	-0.007
471.12	-0.006
471.57	-0.008
472.03	-0.007
472.49	-0.007
472.95	-0.005
473.40	-0.008
473.86	-0.007
474.32	-0.004
474.78	-0.007
475.23	-0.007
475.69	-0.008
476.15	-0.006
476.60	-0.008
477.06	-0.007
477.52	-0.005
477.98	-0.008
478.43	-0.007
478.89	-0.006
479.35	-0.007
479.80	-0.008
480.26	-0.007
480.72	-0.005
481.18	-0.007
481.63	-0.005
482.09	-0.005
482.55	-0.007
483.00	-0.006
483.46	-0.006
483.92	-0.006
484.37	-0.007
484.83	-0.005
485.29	-0.007
485.74	-0.007
486.20	-0.005
486.66	-0.006
487.11	-0.007
487.57	-0.007
488.03	-0.008
488.48	-0.007
488.94	-0.006
489.40	-0.007
489.85	-0.008
490.31	-0.009
490.77	-0.007
491.22	-0.007
491.68	-0.008
492.13	-0.007
492.59	-0.007
493.05	-0.009
493.50	-0.006
493.96	-0.008
494.42	-0.006
494.87	-0.006
495.33	-0.007
495.78	-0.007
496.24	-0.007
496.70	-0.007
497.15	-0.009
497.61	-0.006
498.06	-0.007
498.52	-0.004
498.98	-0.005
499.43	-0.005
499.89	-0.006
500.34	-0.005
500.80	-0.006
501.25	-0.007
501.71	-0.008
502.17	-0.009
502.62	-0.006
503.08	-0.008
503.53	-0.007
503.99	-0.006
504.44	-0.008
504.90	-0.007
505.36	-0.006
505.81	-0.006
506.27	-0.007
506.72	-0.006
507.18	-0.005
507.63	-0.007
508.09	-0.007
508.54	-0.008
509.00	-0.009
509.45	-0.007
509.91	-0.006
510.36	-0.007
510.82	-0.006
511.27	-0.007
511.73	-0.006
512.19	-0.007
512.64	-0.008
513.10	-0.007
513.55	-0.008
514.01	-0.005
514.46	-0.005
514.92	-0.008
515.37	-0.008
515.83	-0.008
516.28	-0.008
516.73	-0.006
517.19	-0.007
517.64	-0.008
518.10	-0.007
518.55	-0.008
519.01	-0.004
519.46	-0.007
519.92	-0.007
520.37	-0.007
520.83	-0.007
521.28	-0.004
521.74	-0.006
522.19	-0.008
522.65	-0.007
523.10	-0.008
523.55	-0.004
524.01	-0.005
524.46	-0.008
524.92	-0.006
525.37	-0.006
525.83	-0.005
526.28	-0.008
526.73	-0.008
527.19	-0.006
527.64	-0.006
528.10	-0.005
528.55	-0.007
529.01	-0.009
529.46	-0.009
529.91	-0.006
530.37	-0.005
530.82	-0.007
531.28	-0.004
531.73	-0.004
532.18	-0.007
532.64	-0.007
533.09	-0.006
533.54	-0.006
534.00	-0.009
534.45	-0.009
534.91	-0.009
535.36	-0.008
535.81	-0.007
536.27	-0.006
536.72	-0.010
537.17	-0.006
537.63	-0.007
538.08	-0.008
538.54	-0.004
538.99	-0.008
539.44	-0.007
539.90	-0.006
540.35	-0.006
540.80	-0.007
541.26	-0.005
541.71	-0.007
542.16	-0.005
542.62	-0.008
543.07	-0.007
543.52	-0.007
543.98	-0.006
544.43	-0.009
544.88	-0.006
545.34	-0.005
545.79	-0.006
546.24	-0.007
546.69	-0.006
547.15	-0.005
547.60	-0.007
548.05	-0.007
548.51	-0.006
548.96	-0.006
549.41	-0.006
549.86	-0.005
550.32	-0.005
550.77	-0.004
551.22	-0.006
551.68	-0.005
552.13	-0.006
552.58	-0.007
553.03	-0.005
553.49	-0.006
553.94	-0.006
554.39	-0.005
554.84	-0.006
555.30	-0.006
555.75	-0.005
556.20	-0.005
556.65	-0.007
557.11	-0.006
557.56	-0.006
558.01	-0.005
558.46	-0.004
558.92	-0.005
559.37	-0.005
559.82	-0.004
560.27	-0.007
560.72	-0.004
561.18	-0.004
561.63	-0.005
562.08	-0.004
562.53	-0.005
562.99	-0.003
563.44	-0.005
563.89	-0.005
564.34	-0.006
564.79	-0.005
565.25	-0.004
565.70	-0.004
566.15	-0.004
566.60	-0.004
567.05	-0.004
567.50	-0.004
567.96	-0.003
568.41	-0.005
568.86	-0.003
569.31	-0.004
569.76	-0.005
570.21	-0.004
570.67	-0.003
571.12	-0.004
571.57	-0.005
572.02	-0.003
572.47	-0.003
572.92	-0.006
573.37	-0.002
573.83	-0.005
574.28	-0.003
574.73	-0.003
575.18	-0.003
575.63	-0.002
576.08	-0.002
576.53	-0.003
576.98	-0.003
577.44	-0.003
577.89	-0.003
578.34	-0.002
578.79	-0.002
579.24	-0.003
579.69	-0.002
580.14	-0.003
580.59	-0.001
581.04	-0.003
581.49	-0.002
581.95	-0.002
582.40	-0.001
582.85	-0.001
583.30	-0.002
583.75	-0.003
584.20	-0.002
584.65	-0.002
585.10	-0.003
585.55	-0.000
586.00	-0.002
586.45	-0.001
586.90	0.001
587.35	-0.002
587.80	-0.002
588.25	-0.001
588.71	0.000
589.16	-0.001
589.61	-0.001
590.06	-0.001
590.51	0.002
590.96	0.000
591.41	0.001
591.86	-0.002
592.31	0.001
592.76	0.000
593.21	0.000
593.66	0.002
594.11	0.002
594.56	0.001
595.01	0.001
595.46	0.000
595.91	0.001
596.36	0.003
596.81	0.002
597.26	0.003
597.71	0.002
598.16	0.002
598.61	0.002
599.06	0.003
599.51	0.004
599.96	0.002
600.41	0.003
600.86	0.003
601.31	0.004
601.76	0.004
602.21	0.004
602.65	0.004
603.10	0.005
603.55	0.003
604.00	0.003
604.45	0.003
604.90	0.004
605.35	0.004
605.80	0.005
606.25	0.005
606.70	0.006
607.15	0.005
607.60	0.005
608.05	0.007
608.50	0.005
608.95	0.007
609.39	0.007
609.84	0.005
610.29	0.007
610.74	0.005
611.19	0.006
611.64	0.007
612.09	0.006
612.54	0.004
612.99	0.006
613.44	0.006
613.88	0.007
614.33	0.006
614.78	0.008
615.23	0.007
615.68	0.006
616.13	0.006
616.58	0.007
617.03	0.006
617.47	0.008
617.92	0.008
618.37	0.008
618.82	0.008
619.27	0.008
619.72	0.007
620.17	0.005
620.61	0.007
621.06	0.006
621.51	0.007
621.96	0.006
622.41	0.008
622.86	0.007
623.30	0.008
623.75	0.007
624.20	0.007
624.65	0.008
625.10	0.009
625.54	0.008
625.99	0.008
626.44	0.007
626.89	0.009
627.34	0.008
627.78	0.009
628.23	0.009
628.68	0.009
629.13	0.009
629.58	0.009
630.02	0.007
630.47	0.010
630.92	0.009
631.37	0.007
631.81	0.010
632.26	0.010
632.71	0.009
633.16	0.009
633.61	0.009
634.05	0.010
634.50	0.009
634.95	0.010
635.40	0.009
635.84	0.009
636.29	0.010
636.74	0.010
637.18	0.012
637.63	0.010
638.08	0.011
638.53	0.014
638.97	0.011
639.42	0.011
639.87	0.013
640.32	0.013
640.76	0.012
641.21	0.013
641.66	0.011
642.10	0.013
642.55	0.013
643.00	0.014
643.44	0.015
643.89	0.014
644.34	0.014
644.79	0.015
645.23	0.015
645.68	0.015
646.13	0.016
646.57	0.014
647.02	0.017
647.47	0.015
647.91	0.017
648.36	0.018
648.81	0.017
649.25	0.019
649.70	0.020
650.15	0.017
650.59	0.017
651.04	0.019
651.48	0.018
651.93	0.019
652.38	0.018
652.82	0.018
653.27	0.020
653.72	0.020
654.16	0.021
654.61	0.022
655.06	0.019
655.50	0.021
655.95	0.022
656.39	0.019
656.84	0.019
657.29	0.024
657.73	0.021
658.18	0.024
658.62	0.022
659.07	0.023
659.52	0.023
659.96	0.025
660.41	0.023
660.85	0.024
661.30	0.024
661.74	0.024
662.19	0.025
662.64	0.024
663.08	0.024
663.53	0.024
663.97	0.024
664.42	0.024
664.86	0.025
665.31	0.025
665.75	0.025
666.20	0.025
666.65	0.024
667.09	0.024
667.54	0.024
667.98	0.022
668.43	0.024
668.87	0.023
669.32	0.024
669.76	0.024
670.21	0.023
670.65	0.025
671.10	0.023
671.54	0.022
671.99	0.023
672.43	0.024
672.88	0.021
673.32	0.019
673.77	0.020
674.21	0.018
674.66	0.017
675.10	0.017
675.55	0.018
675.99	0.016
676.44	0.016
676.88	0.016
677.33	0.015
677.77	0.015
678.22	0.013
678.66	0.013
679.11	0.011
679.55	0.011
679.99	0.011
680.44	0.009
680.88	0.008
681.33	0.009
681.77	0.010
682.22	0.007
682.66	0.007
683.11	0.005
683.55	0.004
683.99	0.004
684.44	0.003
684.88	0.003
685.33	0.002
685.77	0.002
686.21	0.003
686.66	0.003
687.10	0.001
687.55	0.000
687.99	-0.000
688.44	0.000
688.88	0.000
689.32	-0.003
689.77	-0.002
690.21	-0.002
690.65	-0.003
691.10	-0.003
691.54	-0.004
691.99	-0.006
692.43	-0.004
692.87	-0.005
693.32	-0.004
693.76	-0.004
694.20	-0.003
694.65	-0.004
695.09	-0.006
695.53	-0.005
695.98	-0.006
696.42	-0.007
696.86	-0.007
697.31	-0.007
697.75	-0.008
698.19	-0.008
698.64	-0.007
699.08	-0.007
699.52	-0.008
699.97	-0.009
700.41	-0.008
700.85	-0.009
701.30	-0.008
701.74	-0.010
702.18	-0.007
702.63	-0.010
703.07	-0.010
703.51	-0.008
703.96	-0.009
704.40	-0.009
704.84	-0.008
705.28	-0.010
705.73	-0.010
706.17	-0.010
706.61	-0.009
707.06	-0.011
707.50	-0.009
707.94	-0.007
708.38	-0.010
708.83	-0.010
709.27	-0.012
709.71	-0.011
710.15	-0.010
710.60	-0.007
711.04	-0.010
711.48	-0.009
711.92	-0.010
712.37	-0.010
712.81	-0.011
713.25	-0.009
713.69	-0.010
714.13	-0.010
714.58	-0.009
715.02	-0.011
715.46	-0.006
715.90	-0.009
716.35	-0.010
716.79	-0.010
717.23	-0.010
717.67	-0.010
718.11	-0.007
718.56	-0.007
719.00	-0.010
719.44	-0.010
719.88	-0.008
720.32	-0.010
720.76	-0.007
721.21	-0.009
721.65	-0.010
722.09	-0.008
722.53	-0.007
722.97	-0.007
723.41	-0.010
723.86	-0.008
724.30	-0.008
724.74	-0.011
725.18	-0.009
725.62	-0.009
726.06	-0.009
726.50	-0.007
726.95	-0.008
727.39	-0.007
727.83	-0.008
728.27	-0.006
728.71	-0.007
729.15	-0.009
729.59	-0.007
730.03	-0.008
730.48	-0.005
730.92	-0.006
731.36	-0.007
731.80	-0.006
732.24	-0.003
732.68	-0.005
733.12	-0.003
733.56	-0.005
734.00	-0.006
734.44	-0.005
734.89	-0.007
735.33	-0.003
735.77	-0.003
736.21	-0.004
736.65	-0.003
737.09	-0.004
737.53	-0.004
737.97	-0.005
738.41	-0.003
738.85	-0.002
739.29	-0.005
739.73	-0.002
740.17	-0.001
740.61	-0.002
741.05	-0.005
741.49	-0.007
741.93	-0.003
742.37	-0.004
742.81	-0.003
743.26	-0.001
743.70	-0.003
744.14	-0.003
744.58	-0.005
745.02	-0.004
745.46	-0.007
745.90	-0.006
746.34	-0.005
746.78	-0.005
747.22	-0.001
747.66	-0.006
748.10	-0.002
748.54	-0.003
748.98	-0.006
749.42	-0.005
749.86	-0.003
750.29	-0.004
750.73	-0.005
751.17	-0.004
751.61	-0.007
752.05	-0.005
752.49	-0.005
752.93	-0.003
753.37	-0.006
753.81	-0.004
754.25	-0.005
754.69	-0.005
755.13	-0.003
755.57	-0.007
756.01	-0.004
756.45	-0.005
756.89	-0.004
757.33	-0.007
757.77	-0.005
758.21	-0.005
758.64	-0.001
759.08	-0.007
759.52	-0.004
759.96	-0.007
760.40	-0.005
760.84	-0.004
761.28	-0.008
761.72	-0.006
762.16	-0.005
762.60	-0.005
763.03	-0.006
763.47	-0.004
763.91	-0.007
764.35	-0.004
764.79	-0.007
765.23	-0.004
765.67	-0.009
766.11	-0.004
766.54	-0.007
766.98	-0.005
767.42	-0.005
767.86	-0.007
768.30	-0.006
768.74	-0.006
769.17	-0.004
769.61	-0.005
770.05	-0.004
770.49	-0.005
770.93	-0.006
771.37	-0.007
771.80	-0.006
772.24	-0.005
772.68	-0.009
773.12	-0.008
773.56	-0.007
774.00	-0.004
774.43	-0.006
774.87	-0.007
775.31	-0.005
775.75	-0.006
776.19	-0.007
776.62	-0.006
777.06	-0.007
777.50	-0.008
777.94	-0.007
778.37	-0.006
778.81	-0.009
779.25	-0.006
779.69	-0.007
780.13	-0.009
780.56	-0.007
781.00	-0.008
781.44	-0.010
781.88	-0.008
782.31	-0.005
782.75	-0.008
783.19	-0.008
783.63	-0.007
784.06	-0.007
784.50	-0.006
784.94	-0.012
785.37	-0.009
785.81	-0.007
786.25	-0.008
786.69	-0.008
787.12	-0.008
787.56	-0.010
788.00	-0.012
788.43	-0.009
788.87	-0.008
789.31	-0.009
789.75	-0.009
790.18	-0.008
790.62	-0.010
791.06	-0.010
791.49	-0.008
791.93	-0.014
792.37	-0.013
792.80	-0.009
793.24	-0.010
793.68	-0.011
794.11	-0.007
794.55	-0.009
794.99	-0.010
795.42	-0.010
795.86	-0.007
796.30	-0.006
796.73	-0.007
797.17	-0.008
797.61	-0.009
798.04	-0.010
798.48	-0.011
798.91	-0.010
799.35	-0.013
799.79	-0.011
800.22	-0.013
800.66	-0.009
801.10	-0.010
801.53	-0.011
801.97	-0.011
802.40	-0.009
802.84	-0.012
803.28	-0.008
803.71	-0.010
804.15	-0.013
804.58	-0.008
805.02	-0.009
805.46	-0.009
805.89	-0.011
806.33	-0.010
806.76	-0.011
807.20	-0.008
807.63	-0.009
808.07	-0.010
808.51	-0.011
808.94	-0.012
809.38	-0.012
809.81	-0.010
810.25	-0.012
810.68	-0.010
811.12	-0.010
811.55	-0.009
811.99	-0.012
812.42	-0.011
812.86	-0.013
813.29	-0.010
813.73	-0.010
814.17	-0.010
814.60	-0.009
815.04	-0.012
815.47	-0.014
815.91	-0.013
816.34	-0.008
816.78	-0.009
817.21	-0.011
817.65	-0.010
818.08	-0.008
818.52	-0.009
818.95	-0.010
819.39	-0.008
819.82	-0.009
820.25	-0.008
820.69	-0.006
821.12	-0.012
821.56	-0.010
821.99	-0.014
822.43	-0.009
822.86	-0.011
823.30	-0.012
823.73	-0.009
824.17	-0.009
824.60	-0.012
825.04	-0.008
825.47	-0.009
825.90	-0.011
826.34	-0.003
826.77	-0.009
827.21	-0.011
827.64	-0.009
828.08	-0.010
828.51	-0.007
828.94	-0.005
829.38	-0.006
829.81	-0.008
830.25	-0.007
830.68	-0.002
831.11	-0.003
831.55	-0.005
831.98	-0.005
832.42	-0.007
832.85	-0.004
833.28	-0.001
833.72	-0.004
834.15	-0.009
834.58	-0.000
835.02	-0.006
835.45	-0.004
835.88	-0.006
836.32	-0.003
836.75	-0.007
837.19	-0.001
837.62	-0.004
838.05	-0.002
838.49	-0.003
838.92	-0.004
839.35	-0.003
839.79	-0.004
840.22	-0.002
840.65	0.001
841.09	-0.005
841.52	-0.005
841.95	-0.003
842.39	-0.004
842.82	0.000
843.25	-0.005
843.68	-0.002
844.12	-0.006
844.55	-0.000
844.98	0.002
845.42	-0.000
845.85	-0.006
846.28	-0.005
846.71	-0.003
847.15	-0.003
847.58	-0.003
848.01	-0.004
848.45	-0.004
848.88	-0.003
849.31	-0.002
849.74	-0.002
850.18	-0.005
850.61	-0.004
851.04	-0.002
851.47	-0.002
851.91	-0.001
852.34	0.000
852.77	-0.003
853.20	-0.000
853.64	-0.002
854.07	-0.002
854.50	-0.002
854.93	-0.001
855.36	-0.003
855.80	-0.004
856.23	-0.002
856.66	-0.004
857.09	-0.003
857.52	-0.004
857.96	-0.005
858.39	0.003
858.82	0.002
859.25	0.002
859.68	-0.006
860.12	-0.003
860.55	-0.001
860.98	0.005
861.41	0.001
861.84	0.008
862.27	-0.002
862.71	-0.000
863.14	0.001
863.57	0.005
864.00	0.002
864.43	0.001
864.86	0.004
865.30	0.008
865.73	0.004
866.16	0.000
866.59	0.006
867.02	0.003
867.45	0.001
867.88	0.004
868.31	0.003
868.75	0.001
869.18	0.000
869.61	0.001
870.04	0.004
870.47	0.001
870.90	0.002
871.33	0.004
871.76	0.001
872.19	-0.000
872.62	0.007
873.06	0.009
873.49	0.004
873.92	0.006
874.35	0.001
874.78	0.006
875.21	0.003
875.64	0.005
876.07	0.000
876.50	0.006
876.93	0.007
877.36	0.009
877.79	0.007
878.22	0.006
878.65	0.010
879.08	0.011
879.51	0.003
879.94	0.006
880.37	0.006
880.80	0.010
881.23	0.001
881.67	0.008
882.10	0.012
882.53	0.009
882.96	0.012
883.39	0.009
883.82	0.009
884.25	0.012
884.68	0.019
885.11	0.010
885.54	0.011
885.97	0.013
886.39	0.013
886.82	0.007
887.25	0.008
887.68	0.009
888.11	0.012
888.54	0.008
888.97	0.012
889.40	0.016
889.83	0.011
890.26	0.014
890.69	0.013
891.12	0.011
891.55	0.015
891.98	0.015
892.41	0.015
892.84	0.019
893.27	0.011
893.70	0.017
894.13	0.014
894.56	0.012
894.98	0.020
895.41	0.018
895.84	0.020
896.27	0.018
896.70	0.015
897.13	0.017
897.56	0.018
897.99	0.017
898.42	0.021
898.85	0.021
899.27	0.020
899.70	0.021
900.13	0.016
900.56	0.020
900.99	0.020
901.42	0.017
901.85	0.019
902.28	0.017
902.70	0.019
903.13	0.022
903.56	0.018
903.99	0.013
904.42	0.017
904.85	0.015
905.27	0.020
905.70	0.020
906.13	0.015
906.56	0.020
906.99	0.019
907.42	0.014
907.84	0.020
908.27	0.015
908.70	0.019
909.13	0.018
909.56	0.020
909.98	0.015
910.41	0.019
910.84	0.020
911.27	0.020
911.70	0.028
912.12	0.020
912.55	0.021
912.98	0.021
913.41	0.020
913.84	0.016
914.26	0.019
914.69	0.020
915.12	0.020
915.55	0.021
915.97	0.019
916.40	0.020
916.83	0.023
917.26	0.020
917.68	0.023
918.11	0.020
918.54	0.023
918.97	0.024
919.39	0.021
919.82	0.026
920.25	0.023
920.67	0.025
921.10	0.024
921.53	0.024
921.96	0.024
922.38	0.024
922.81	0.026
923.24	0.020
923.66	0.024
924.09	0.029
924.52	0.028
924.94	0.030
925.37	0.033
925.80	0.032
926.22	0.029
926.65	0.029
927.08	0.037
927.50	0.035
927.93	0.032
928.36	0.032
928.78	0.037
929.21	0.036
929.64	0.036
930.06	0.043
930.49	0.039
930.92	0.039
931.34	0.042
931.77	0.038
932.20	0.043
932.62	0.045
933.05	0.046
933.47	0.048
933.90	0.044
934.33	0.048
934.75	0.054
935.18	0.048
935.61	0.053
936.03	0.056
936.46	0.056
936.88	0.058
937.31	0.056
937.73	0.059
938.16	0.059
938.59	0.061
939.01	0.067
939.44	0.068
939.86	0.066
940.29	0.064
940.71	0.071
941.14	0.074
941.57	0.068
941.99	0.072
942.42	0.068
942.84	0.077
943.27	0.071
943.69	0.077
944.12	0.075
944.54	0.086
944.97	0.088
945.39	0.092
945.82	0.088
946.24	0.086
946.67	0.082
947.09	0.094
947.52	0.095
947.94	0.092
948.37	0.102
948.79	0.108
949.22	0.104
949.64	0.109
950.07	0.109
950.49	0.114
950.92	0.118
951.34	0.114
951.77	0.114
952.19	0.119
952.62	0.123
953.04	0.126
953.47	0.131
953.89	0.138
954.32	0.133
954.74	0.139
955.17	0.142
955.59	0.146
956.01	0.145
956.44	0.154
956.86	0.155
957.29	0.151
957.71	0.166
958.14	0.157
958.56	0.169
958.98	0.166
959.41	0.170
959.83	0.169
960.26	0.175
960.68	0.177
961.10	0.178
961.53	0.180
961.95	0.179
962.38	0.179
962.80	0.179
963.22	0.184
963.65	0.181
964.07	0.185
964.50	0.186
964.92	0.182
965.34	0.188
965.77	0.183
966.19	0.190
966.61	0.192
967.04	0.187
967.46	0.190
967.88	0.188
968.31	0.191
968.73	0.189
969.15	0.193
969.58	0.196
970.00	0.194
970.42	0.191
970.85	0.199
971.27	0.188
971.69	0.193
972.12	0.190
972.54	0.199
972.96	0.197
973.39	0.188
973.81	0.191
974.23	0.195
974.65	0.197
975.08	0.196
975.50	0.202
975.92	0.194
976.35	0.202
976.77	0.192
977.19	0.198
977.61	0.200
978.04	0.198
978.46	0.201
978.88	0.200
979.30	0.194
979.73	0.194
980.15	0.200
980.57	0.199
980.99	0.198
981.42	0.197
981.84	0.194
982.26	0.197
982.68	0.196
983.11	0.192
983.53	0.198
983.95	0.193
984.37	0.190
984.79	0.195
985.22	0.194
985.64	0.195
986.06	0.196
986.48	0.192
986.90	0.189
987.33	0.188
987.75	0.193
988.17	0.188
988.59	0.190
989.01	0.193
989.43	0.198
989.86	0.188
990.28	0.183
990.70	0.193
991.12	0.191
991.54	0.189
991.96	0.197
992.39	0.188
992.81	0.188
993.23	0.188
993.65	0.189
994.07	0.184
994.49	0.187
994.91	0.183
995.34	0.179
995.76	0.182
996.18	0.184
996.60	0.182
997.02	0.181
997.44	0.177
997.86	0.174
998.28	0.170
998.70	0.175
999.12	0.168
999.55	0.171
999.97	0.169
1000.39	0.173
1000.81	0.172
1001.23	0.174
1001.65	0.169
1002.07	0.169
1002.49	0.171
1002.91	0.165
1003.33	0.161
1003.75	0.166
1004.17	0.164
1004.59	0.158
1005.01	0.168
1005.43	0.167
1005.85	0.159
1006.28	0.156
1006.70	0.161
1007.12	0.160
1007.54	0.154
1007.96	0.160
1008.38	0.150
1008.80	0.152
1009.22	0.156
1009.64	0.151
1010.06	0.145
1010.48	0.164
1010.90	0.149
1011.32	0.155
1011.74	0.158
1012.16	0.148
1012.58	0.158
1013.00	0.143
1013.42	0.145
1013.84	0.152
1014.26	0.139
1014.67	0.141
1015.09	0.148
1015.51	0.146
1015.93	0.141
1016.35	0.133
1016.77	0.136
1017.19	0.134
1017.61	0.137
1018.03	0.126
1018.45	0.138
1018.87	0.141
1019.29	0.131
1019.71	0.135
1020.13	0.120
1020.55	0.132
1020.97	0.130
1021.38	0.133
1021.80	0.132
1022.22	0.118
1022.64	0.127
1023.06	0.113
1023.48	0.116
1023.90	0.108
1024.32	0.129
1024.74	0.115
1025.15	0.120
1025.57	0.109
1025.99	0.106
1026.41	0.120
1026.83	0.117
1027.25	0.112
1027.67	0.119
1028.08	0.104
1028.50	0.102
1028.92	0.100
1029.34	0.103
1029.76	0.117
1030.18	0.096
1030.60	0.104
1031.01	0.108
1031.43	0.081
1031.85	0.095
1032.27	0.102
1032.69	0.102
1033.10	0.096
1033.52	0.103
1033.94	0.106
1034.36	0.105
1034.78	0.101
1035.19	0.080
1035.61	0.098
1036.03	0.101
1036.45	0.095
1036.87	0.097
1037.28	0.084
1037.70	0.088
1038.12	0.093
1038.54	0.093
1038.95	0.084
1039.37	0.092
1039.79	0.087
1040.21	0.094
1040.62	0.093
1041.04	0.064
1041.46	0.092
1041.88	0.076
1042.29	0.086
1042.71	0.089
1043.13	0.067
1043.55	0.102
1043.96	0.061
1044.38	0.091
1044.80	0.083
1045.21	0.092
1045.63	0.086
1046.05	0.094
1046.47	0.084
1046.88	0.087
1047.30	0.071
1047.72	0.076
1048.13	0.082
1048.55	0.056
1048.97	0.081
1049.38	0.078
1049.80	0.081
1050.22	0.073
1050.63	0.106
1051.05	0.079
1051.47	0.078
1051.88	0.084
1052.30	0.061
1052.72	0.086
1053.13	0.064
1053.55	0.064
1053.97	0.074
1054.38	0.066
1054.80	0.071
1055.21	0.081
1055.63	0.056
1056.05	0.072
1056.46	0.049
1056.88	0.054
1057.29	0.084
1057.71	0.077
1058.13	0.056
1058.54	0.078
1058.96	0.071
1059.37	0.056
1059.79	0.078
1060.21	0.062
1060.62	0.080
1061.04	0.072
1061.45	0.048
1061.87	0.102
1062.28	0.061
1062.70	0.065
1063.12	0.087
1063.53	0.098
1063.95	0.031
1064.36	0.059
1064.78	0.034
1065.19	0.055
1065.61	0.094
1066.02	0.019
1066.44	0.177
1066.85	0.040
1067.27	0.112
1067.68	0.083
1068.10	0.082
1068.51	0.101
1068.93	0.074
1069.35	0.015
1069.76	0.117
1070.17	0.010
1070.59	0.014
1071.00	0.131
1071.42	0.128
1071.83	0.077
1072.25	0.052
1072.66	0.026
1073.08	-0.032
1073.49	0.091
1073.91	-0.017
1074.32	0.024
1074.74	-0.031
1075.15	-0.099
1075.57	0.214
1075.98	-0.006
1076.40	-0.056
1076.81	0.045
1077.22	0.215
1077.64	0.099
1078.05	0.081
1078.47	0.081
1078.88	0.073
1079.30	-0.002
1079.71	-0.019
1080.12	0.159
1080.54	0.093
1080.95	-0.028
1081.37	0.244
1081.78	0.077
1082.19	0.002
1082.61	0.213
1083.02	0.047
1083.44	0.224
1083.85	-0.113
1084.26	-0.101
1084.68	0.071
1085.09	0.097
1085.50	0.073
1085.92	-0.120
1086.33	0.054
1086.74	-0.046
1087.16	0.407
1087.57	-0.055
1087.98	-0.000
1088.40	0.385
1088.81	-0.020
1089.22	0.155
1089.64	0.236
1090.05	0.319
1090.46	0.549
1090.88	-0.008
1091.29	-0.093
1091.70	0.577
1092.12	0.189
1092.53	-0.033
1092.94	0.327
1093.36	-0.120
1093.77	0.182
1094.18	0.063
1094.59	0.329
1095.01	0.407
1095.42	0.204
1095.83	0.174
1096.25	0.104
1096.66	0.193
1097.07	0.482
1097.48	-0.111
1097.90	-0.011
1098.31	-0.099
1098.72	0.115
1099.13	0.055
>>>>>End Processed Spectral Data<<<<<
